Vernier Format 2
reposo1-s1.txt 10/12/2025 10:10:11
Run 1
Time	Potential	EKG	
T	P	E	
s	mV	mV	

0.000	0.149	0.007	
0.005	-0.020	0.022	
0.010	-0.177	0.022	
0.015	-0.055	-0.002	
0.020	-0.055	-0.029	
0.025	-0.261	-0.056	
0.030	-0.191	-0.095	
0.035	-0.031	-0.128	
0.040	-0.201	-0.141	
0.045	-0.235	-0.152	
0.050	-0.026	-0.162	
0.055	-0.104	-0.155	
0.060	-0.246	-0.145	
0.065	-0.102	-0.145	
0.070	-0.044	-0.142	
0.075	-0.198	-0.132	
0.080	-0.139	-0.129	
0.085	0.047	-0.124	
0.090	-0.151	-0.107	
0.095	-0.185	-0.100	
0.100	0.072	-0.098	
0.105	-0.029	-0.083	
0.110	-0.186	-0.068	
0.115	-0.053	-0.069	
0.120	0.043	-0.068	
0.125	-0.151	-0.061	
0.130	-0.056	-0.061	
0.135	0.180	-0.053	
0.140	-0.072	-0.029	
0.145	-0.124	-0.016	
0.150	0.172	-0.013	
0.155	0.053	0.003	
0.160	-0.117	0.018	
0.165	0.081	0.017	
0.170	0.139	0.022	
0.175	-0.102	0.032	
0.180	0.029	0.030	
0.185	0.315	0.035	
0.190	0.067	0.065	
0.195	-0.043	0.087	
0.200	0.264	0.092	
0.205	0.139	0.107	
0.210	-0.060	0.117	
0.215	0.180	0.109	
0.220	0.183	0.107	
0.225	-0.131	0.106	
0.230	-0.072	0.079	
0.235	0.120	0.044	
0.240	-0.134	0.020	
0.245	-0.188	-0.011	
0.250	0.021	-0.047	
0.255	-0.102	-0.067	
0.260	-0.273	-0.086	
0.265	-0.142	-0.115	
0.270	-0.104	-0.139	
0.275	-0.265	-0.154	
0.280	-0.194	-0.171	
0.285	-0.079	-0.181	
0.290	-0.252	-0.181	
0.295	-0.288	-0.187	
0.300	-0.081	-0.198	
0.305	-0.143	-0.194	
0.310	-0.271	-0.186	
0.315	-0.104	-0.184	
0.320	-0.076	-0.175	
0.325	-0.282	-0.163	
0.330	-0.212	-0.166	
0.335	-0.020	-0.171	
0.340	-0.172	-0.161	
0.345	-0.226	-0.154	
0.350	-0.020	-0.151	
0.355	-0.098	-0.139	
0.360	-0.213	-0.127	
0.365	-0.020	-0.123	
0.370	0.020	-0.109	
0.375	-0.172	-0.089	
0.380	-0.096	-0.082	
0.385	0.099	-0.076	
0.390	-0.139	-0.061	
0.395	-0.175	-0.058	
0.400	0.082	-0.065	
0.405	-0.029	-0.058	
0.410	-0.188	-0.052	
0.415	-0.043	-0.060	
0.420	-0.003	-0.065	
0.425	-0.198	-0.067	
0.430	-0.114	-0.080	
0.435	0.111	-0.086	
0.440	-0.127	-0.074	
0.445	-0.171	-0.069	
0.450	0.108	-0.070	
0.455	-0.017	-0.056	
0.460	-0.186	-0.045	
0.465	-0.029	-0.050	
0.470	0.064	-0.051	
0.475	-0.140	-0.045	
0.480	-0.061	-0.046	
0.485	0.146	-0.043	
0.490	-0.120	-0.029	
0.495	-0.142	-0.028	
0.500	0.148	-0.034	
0.505	-0.029	-0.025	
0.510	-0.185	-0.020	
0.515	0.032	-0.031	
0.520	0.087	-0.032	
0.525	-0.180	-0.026	
0.530	-0.084	-0.034	
0.535	0.165	-0.041	
0.540	-0.105	-0.030	
0.545	-0.127	-0.027	
0.550	0.161	-0.030	
0.555	0.024	-0.015	
0.560	-0.154	-0.003	
0.565	0.012	-0.009	
0.570	0.050	-0.014	
0.575	-0.153	-0.015	
0.580	-0.058	-0.028	
0.585	0.140	-0.035	
0.590	-0.108	-0.026	
0.595	-0.148	-0.028	
0.600	0.079	-0.038	
0.605	-0.044	-0.038	
0.610	-0.163	-0.039	
0.615	0.024	-0.048	
0.620	0.078	-0.045	
0.625	-0.156	-0.035	
0.630	-0.081	-0.037	
0.635	0.178	-0.038	
0.640	-0.056	-0.022	
0.645	-0.098	-0.011	
0.650	0.174	-0.007	
0.655	0.000	0.007	
0.660	-0.171	0.013	
0.665	0.037	-0.000	
0.670	0.145	-0.005	
0.675	-0.111	0.004	
0.680	-0.038	0.002	
0.685	0.212	0.002	
0.690	-0.064	0.016	
0.695	-0.087	0.020	
0.700	0.206	0.017	
0.705	0.079	0.031	
0.710	-0.113	0.044	
0.715	0.140	0.041	
0.720	0.201	0.050	
0.725	-0.093	0.065	
0.730	-0.024	0.061	
0.735	0.224	0.051	
0.740	-0.066	0.053	
0.745	-0.120	0.043	
0.750	0.116	0.022	
0.755	-0.061	0.009	
0.760	-0.207	-0.008	
0.765	-0.027	-0.039	
0.770	0.038	-0.057	
0.775	-0.188	-0.062	
0.780	-0.134	-0.074	
0.785	0.056	-0.085	
0.790	-0.151	-0.083	
0.795	-0.168	-0.086	
0.800	0.081	-0.090	
0.805	-0.056	-0.078	
0.810	-0.213	-0.069	
0.815	-0.073	-0.078	
0.820	0.011	-0.084	
0.825	-0.146	-0.080	
0.830	0.055	-0.074	
0.835	0.418	-0.040	
0.840	0.280	0.038	
0.845	0.319	0.129	
0.850	0.681	0.224	
0.855	0.466	0.328	
0.860	0.128	0.400	
0.865	0.255	0.406	
0.870	0.187	0.372	
0.875	-0.134	0.310	
0.880	-0.069	0.215	
0.885	0.114	0.121	
0.890	-0.154	0.053	
0.895	-0.217	-0.009	
0.900	-0.012	-0.066	
0.905	-0.114	-0.098	
0.910	-0.233	-0.117	
0.915	-0.072	-0.136	
0.920	-0.053	-0.139	
0.925	-0.242	-0.135	
0.930	-0.134	-0.139	
0.935	0.105	-0.134	
0.940	-0.127	-0.109	
0.945	-0.172	-0.092	
0.950	0.061	-0.085	
0.955	-0.084	-0.072	
0.960	-0.227	-0.068	
0.965	-0.027	-0.080	
0.970	0.017	-0.083	
0.975	-0.191	-0.078	
0.980	-0.105	-0.082	
0.985	0.105	-0.083	
0.990	-0.107	-0.068	
0.995	-0.096	-0.058	
1.000	0.175	-0.048	
1.005	-0.008	-0.023	
1.010	-0.168	-0.006	
1.015	0.068	-0.010	
1.020	0.154	-0.004	
1.025	-0.124	0.011	
1.030	0.008	0.013	
1.035	0.256	0.018	
1.040	-0.024	0.040	
1.045	-0.040	0.051	
1.050	0.291	0.056	
1.055	0.091	0.077	
1.060	-0.139	0.089	
1.065	0.090	0.074	
1.070	0.192	0.063	
1.075	-0.046	0.066	
1.080	0.093	0.065	
1.085	0.303	0.072	
1.090	0.003	0.095	
1.095	-0.038	0.101	
1.100	0.244	0.093	
1.105	0.053	0.096	
1.110	-0.140	0.089	
1.115	0.029	0.060	
1.120	0.009	0.031	
1.125	-0.210	0.004	
1.130	-0.139	-0.036	
1.135	0.004	-0.071	
1.140	-0.212	-0.091	
1.145	-0.273	-0.116	
1.150	-0.047	-0.144	
1.155	-0.149	-0.155	
1.160	-0.294	-0.161	
1.165	-0.153	-0.176	
1.170	-0.131	-0.184	
1.175	-0.299	-0.187	
1.180	-0.227	-0.198	
1.185	-0.085	-0.206	
1.190	-0.235	-0.201	
1.195	-0.259	-0.199	
1.200	-0.061	-0.199	
1.205	-0.131	-0.186	
1.210	-0.249	-0.171	
1.215	-0.076	-0.165	
1.220	-0.026	-0.151	
1.225	-0.218	-0.133	
1.230	-0.136	-0.127	
1.235	0.030	-0.121	
1.240	-0.142	-0.106	
1.245	-0.162	-0.099	
1.250	0.085	-0.094	
1.255	-0.037	-0.076	
1.260	-0.172	-0.060	
1.265	-0.018	-0.060	
1.270	0.014	-0.058	
1.275	-0.180	-0.054	
1.280	-0.108	-0.063	
1.285	0.065	-0.071	
1.290	-0.142	-0.068	
1.295	-0.157	-0.071	
1.300	0.056	-0.078	
1.305	-0.073	-0.072	
1.310	-0.195	-0.069	
1.315	-0.015	-0.077	
1.320	0.027	-0.076	
1.325	-0.194	-0.068	
1.330	-0.085	-0.073	
1.335	0.169	-0.070	
1.340	-0.089	-0.049	
1.345	-0.140	-0.036	
1.350	0.126	-0.034	
1.355	0.000	-0.022	
1.360	-0.148	-0.013	
1.365	0.061	-0.017	
1.370	0.072	-0.014	
1.375	-0.195	-0.009	
1.380	-0.136	-0.026	
1.385	0.070	-0.048	
1.390	-0.139	-0.056	
1.395	-0.162	-0.067	
1.400	0.097	-0.077	
1.405	-0.040	-0.067	
1.410	-0.180	-0.058	
1.415	0.037	-0.059	
1.420	0.111	-0.049	
1.425	-0.157	-0.030	
1.430	-0.061	-0.027	
1.435	0.172	-0.026	
1.440	-0.066	-0.010	
1.445	-0.104	-0.004	
1.450	0.155	-0.005	
1.455	-0.012	0.004	
1.460	-0.163	0.006	
1.465	-0.006	-0.010	
1.470	0.038	-0.022	
1.475	-0.169	-0.029	
1.480	-0.078	-0.044	
1.485	0.120	-0.053	
1.490	-0.130	-0.046	
1.495	-0.139	-0.047	
1.500	0.140	-0.051	
1.505	0.003	-0.037	
1.510	-0.153	-0.024	
1.515	0.076	-0.023	
1.520	0.143	-0.012	
1.525	-0.096	0.008	
1.530	0.070	0.017	
1.535	0.300	0.035	
1.540	0.012	0.068	
1.545	-0.021	0.086	
1.550	0.294	0.091	
1.555	0.084	0.107	
1.560	-0.125	0.110	
1.565	0.094	0.088	
1.570	0.157	0.072	
1.575	-0.117	0.063	
1.580	-0.060	0.041	
1.585	0.070	0.015	
1.590	-0.157	-0.004	
1.595	-0.192	-0.033	
1.600	0.037	-0.064	
1.605	-0.082	-0.077	
1.610	-0.206	-0.085	
1.615	-0.031	-0.097	
1.620	0.015	-0.097	
1.625	-0.183	-0.087	
1.630	-0.092	-0.087	
1.635	0.097	-0.083	
1.640	-0.125	-0.067	
1.645	-0.137	-0.060	
1.650	0.058	-0.061	
1.655	-0.095	-0.056	
1.660	-0.178	-0.057	
1.665	0.143	-0.062	
1.670	0.311	-0.033	
1.675	0.110	0.027	
1.680	0.402	0.095	
1.685	0.756	0.188	
1.690	0.412	0.306	
1.695	0.264	0.393	
1.700	0.437	0.427	
1.705	0.137	0.423	
1.710	-0.108	0.371	
1.715	0.081	0.277	
1.720	0.091	0.187	
1.725	-0.160	0.112	
1.730	-0.098	0.040	
1.735	0.064	-0.016	
1.740	-0.178	-0.048	
1.745	-0.218	-0.078	
1.750	-0.014	-0.108	
1.755	-0.114	-0.119	
1.760	-0.246	-0.125	
1.765	-0.075	-0.136	
1.770	-0.050	-0.137	
1.775	-0.232	-0.131	
1.780	-0.140	-0.134	
1.785	0.053	-0.132	
1.790	-0.142	-0.115	
1.795	-0.168	-0.103	
1.800	0.062	-0.098	
1.805	-0.078	-0.083	
1.810	-0.206	-0.074	
1.815	0.006	-0.078	
1.820	0.059	-0.072	
1.825	-0.166	-0.058	
1.830	-0.052	-0.055	
1.835	0.184	-0.047	
1.840	-0.079	-0.024	
1.845	-0.111	-0.012	
1.850	0.151	-0.011	
1.855	-0.002	0.000	
1.860	-0.145	0.006	
1.865	0.068	-0.003	
1.870	0.149	0.000	
1.875	-0.105	0.014	
1.880	-0.003	0.015	
1.885	0.245	0.019	
1.890	-0.041	0.038	
1.895	-0.067	0.045	
1.900	0.300	0.046	
1.905	0.157	0.069	
1.910	-0.056	0.094	
1.915	0.229	0.101	
1.920	0.311	0.119	
1.925	-0.024	0.144	
1.930	0.064	0.145	
1.935	0.255	0.135	
1.940	-0.049	0.129	
1.945	-0.131	0.104	
1.950	0.085	0.062	
1.955	-0.072	0.028	
1.960	-0.224	-0.007	
1.965	-0.116	-0.052	
1.970	-0.119	-0.091	
1.975	-0.282	-0.123	
1.980	-0.210	-0.157	
1.985	-0.079	-0.181	
1.990	-0.218	-0.186	
1.995	-0.247	-0.190	
2.000	-0.099	-0.194	
2.005	-0.165	-0.188	
2.010	-0.255	-0.182	
2.015	-0.087	-0.181	
2.020	-0.064	-0.169	
2.025	-0.268	-0.155	
2.030	-0.220	-0.157	
2.035	-0.090	-0.166	
2.040	-0.233	-0.169	
2.045	-0.238	-0.176	
2.050	-0.024	-0.181	
2.055	-0.133	-0.169	
2.060	-0.249	-0.157	
2.065	-0.081	-0.155	
2.070	-0.009	-0.145	
2.075	-0.215	-0.127	
2.080	-0.128	-0.122	
2.085	0.084	-0.114	
2.090	-0.143	-0.094	
2.095	-0.175	-0.085	
2.100	0.096	-0.083	
2.105	-0.043	-0.068	
2.110	-0.180	-0.055	
2.115	-0.005	-0.058	
2.120	-0.003	-0.058	
2.125	-0.215	-0.057	
2.130	-0.125	-0.072	
2.135	0.056	-0.085	
2.140	-0.156	-0.083	
2.145	-0.165	-0.087	
2.150	0.101	-0.090	
2.155	-0.035	-0.075	
2.160	-0.169	-0.060	
2.165	0.014	-0.058	
2.170	0.091	-0.049	
2.175	-0.133	-0.032	
2.180	-0.060	-0.029	
2.185	0.160	-0.026	
2.190	-0.117	-0.013	
2.195	-0.140	-0.015	
2.200	0.130	-0.025	
2.205	-0.046	-0.022	
2.210	-0.185	-0.023	
2.215	0.032	-0.037	
2.220	0.064	-0.040	
2.225	-0.159	-0.034	
2.230	-0.072	-0.040	
2.235	0.110	-0.044	
2.240	-0.124	-0.037	
2.245	-0.143	-0.040	
2.250	0.117	-0.047	
2.255	-0.038	-0.040	
2.260	-0.175	-0.035	
2.265	0.047	-0.042	
2.270	0.097	-0.037	
2.275	-0.149	-0.023	
2.280	-0.037	-0.023	
2.285	0.198	-0.020	
2.290	-0.076	-0.002	
2.295	-0.110	0.005	
2.300	0.131	-0.001	
2.305	-0.011	0.003	
2.310	-0.160	0.002	
2.315	0.021	-0.013	
2.320	0.038	-0.022	
2.325	-0.172	-0.025	
2.330	-0.076	-0.040	
2.335	0.110	-0.050	
2.340	-0.119	-0.045	
2.345	-0.140	-0.046	
2.350	0.175	-0.049	
2.355	0.018	-0.030	
2.360	-0.160	-0.013	
2.365	0.096	-0.012	
2.370	0.160	-0.000	
2.375	-0.120	0.019	
2.380	-0.055	0.019	
2.385	0.102	0.009	
2.390	-0.133	0.004	
2.395	-0.139	-0.014	
2.400	0.117	-0.033	
2.405	-0.032	-0.034	
2.410	-0.156	-0.033	
2.415	0.075	-0.038	
2.420	0.085	-0.030	
2.425	-0.166	-0.017	
2.430	-0.089	-0.023	
2.435	0.130	-0.032	
2.440	-0.090	-0.026	
2.445	-0.124	-0.027	
2.450	0.158	-0.030	
2.455	0.012	-0.017	
2.460	-0.149	-0.006	
2.465	0.026	-0.011	
2.470	0.043	-0.014	
2.475	-0.153	-0.015	
2.480	-0.053	-0.027	
2.485	0.151	-0.033	
2.490	-0.104	-0.023	
2.495	-0.117	-0.022	
2.500	0.204	-0.024	
2.505	0.041	-0.005	
2.510	-0.110	0.014	
2.515	0.186	0.020	
2.520	0.158	0.039	
2.525	-0.124	0.059	
2.530	0.000	0.054	
2.535	0.248	0.047	
2.540	-0.024	0.057	
2.545	-0.064	0.057	
2.550	0.195	0.049	
2.555	0.015	0.052	
2.560	-0.154	0.047	
2.565	0.068	0.025	
2.570	0.037	0.011	
2.575	-0.195	-0.001	
2.580	-0.093	-0.027	
2.585	0.097	-0.048	
2.590	-0.145	-0.051	
2.595	-0.172	-0.060	
2.600	0.058	-0.074	
2.605	-0.061	-0.072	
2.610	-0.175	-0.069	
2.615	0.035	-0.072	
2.620	0.059	-0.062	
2.625	-0.185	-0.048	
2.630	-0.104	-0.051	
2.635	0.062	-0.058	
2.640	-0.169	-0.058	
2.645	-0.172	-0.068	
2.650	0.134	-0.078	
2.655	0.110	-0.059	
2.660	0.046	-0.020	
2.665	0.492	0.035	
2.670	0.608	0.131	
2.675	0.331	0.248	
2.680	0.450	0.339	
2.685	0.561	0.404	
2.690	0.111	0.439	
2.695	-0.020	0.410	
2.700	0.204	0.333	
2.705	-0.038	0.250	
2.710	-0.188	0.160	
2.715	0.003	0.068	
2.720	0.012	0.002	
2.725	-0.204	-0.039	
2.730	-0.130	-0.076	
2.735	0.008	-0.102	
2.740	-0.195	-0.110	
2.745	-0.215	-0.121	
2.750	-0.009	-0.133	
2.755	-0.166	-0.133	
2.760	-0.291	-0.138	
2.765	-0.116	-0.155	
2.770	-0.082	-0.162	
2.775	-0.252	-0.161	
2.780	-0.156	-0.164	
2.785	0.014	-0.161	
2.790	-0.163	-0.143	
2.795	-0.168	-0.130	
2.800	0.076	-0.119	
2.805	-0.061	-0.095	
2.810	-0.180	-0.077	
2.815	0.027	-0.071	
2.820	0.107	-0.056	
2.825	-0.101	-0.032	
2.830	0.009	-0.018	
2.835	0.172	-0.004	
2.840	-0.146	0.013	
2.845	-0.186	0.005	
2.850	0.157	-0.016	
2.855	0.035	-0.016	
2.860	-0.145	-0.010	
2.865	0.091	-0.012	
2.870	0.157	-0.002	
2.875	-0.093	0.018	
2.880	0.075	0.026	
2.885	0.280	0.041	
2.890	0.011	0.071	
2.895	-0.027	0.085	
2.900	0.265	0.086	
2.905	0.114	0.100	
2.910	-0.050	0.108	
2.915	0.242	0.104	
2.920	0.218	0.113	
2.925	-0.096	0.124	
2.930	-0.008	0.107	
2.935	0.169	0.081	
2.940	-0.122	0.063	
2.945	-0.168	0.032	
2.950	0.009	-0.010	
2.955	-0.145	-0.043	
2.960	-0.276	-0.076	
2.965	-0.099	-0.116	
2.970	-0.095	-0.140	
2.975	-0.259	-0.151	
2.980	-0.182	-0.166	
2.985	-0.049	-0.173	
2.990	-0.247	-0.169	
2.995	-0.290	-0.174	
3.000	-0.105	-0.188	
3.005	-0.198	-0.192	
3.010	-0.303	-0.196	
3.015	-0.128	-0.204	
3.020	-0.090	-0.201	
3.025	-0.246	-0.188	
3.030	-0.142	-0.180	
3.035	-0.009	-0.168	
3.040	-0.203	-0.148	
3.045	-0.192	-0.138	
3.050	-0.002	-0.135	
3.055	-0.127	-0.124	
3.060	-0.250	-0.119	
3.065	-0.056	-0.126	
3.070	-0.026	-0.124	
3.075	-0.233	-0.116	
3.080	-0.122	-0.119	
3.085	0.085	-0.117	
3.090	-0.137	-0.098	
3.095	-0.168	-0.087	
3.100	0.062	-0.085	
3.105	-0.075	-0.073	
3.110	-0.186	-0.067	
3.115	0.012	-0.071	
3.120	0.041	-0.066	
3.125	-0.172	-0.055	
3.130	-0.075	-0.057	
3.135	0.120	-0.056	
3.140	-0.128	-0.044	
3.145	-0.136	-0.042	
3.150	0.081	-0.049	
3.155	-0.069	-0.045	
3.160	-0.188	-0.046	
3.165	0.017	-0.057	
3.170	0.050	-0.057	
3.175	-0.171	-0.049	
3.180	-0.081	-0.053	
3.185	0.082	-0.057	
3.190	-0.142	-0.051	
3.195	-0.156	-0.055	
3.200	0.116	-0.063	
3.205	-0.049	-0.053	
3.210	-0.165	-0.046	
3.215	0.044	-0.049	
3.220	0.094	-0.041	
3.225	-0.143	-0.025	
3.230	-0.023	-0.023	
3.235	0.177	-0.018	
3.240	-0.110	-0.002	
3.245	-0.137	-0.002	
3.250	0.149	-0.013	
3.255	-0.009	-0.009	
3.260	-0.175	-0.007	
3.265	0.024	-0.020	
3.270	0.033	-0.028	
3.275	-0.200	-0.031	
3.280	-0.089	-0.048	
3.285	0.113	-0.060	
3.290	-0.111	-0.053	
3.295	-0.122	-0.051	
3.300	0.146	-0.050	
3.305	-0.011	-0.033	
3.310	-0.156	-0.020	
3.315	0.085	-0.021	
3.320	0.094	-0.012	
3.325	-0.156	-0.000	
3.330	-0.053	-0.007	
3.335	0.183	-0.013	
3.340	-0.095	-0.003	
3.345	-0.111	-0.003	
3.350	0.134	-0.011	
3.355	-0.041	-0.008	
3.360	-0.169	-0.010	
3.365	0.125	-0.021	
3.370	0.123	-0.013	
3.375	-0.162	0.003	
3.380	-0.066	-0.002	
3.385	0.084	-0.014	
3.390	-0.153	-0.019	
3.395	-0.136	-0.035	
3.400	0.157	-0.049	
3.405	-0.034	-0.040	
3.410	-0.153	-0.031	
3.415	0.064	-0.033	
3.420	0.059	-0.027	
3.425	-0.153	-0.017	
3.430	-0.018	-0.022	
3.435	0.160	-0.021	
3.440	-0.099	-0.008	
3.445	-0.093	-0.006	
3.450	0.178	-0.009	
3.455	-0.009	0.003	
3.460	-0.153	0.009	
3.465	0.052	-0.002	
3.470	0.037	-0.008	
3.475	-0.174	-0.011	
3.480	-0.041	-0.027	
3.485	0.133	-0.036	
3.490	-0.122	-0.029	
3.495	-0.124	-0.031	
3.500	0.169	-0.035	
3.505	-0.017	-0.022	
3.510	-0.136	-0.011	
3.515	0.091	-0.013	
3.520	0.072	-0.006	
3.525	-0.177	0.001	
3.530	-0.050	-0.011	
3.535	0.137	-0.021	
3.540	-0.117	-0.018	
3.545	-0.079	-0.021	
3.550	0.210	-0.021	
3.555	-0.023	-0.003	
3.560	-0.145	0.007	
3.565	0.102	0.001	
3.570	0.157	0.008	
3.575	-0.113	0.024	
3.580	0.000	0.024	
3.585	0.161	0.022	
3.590	-0.108	0.027	
3.595	-0.084	0.018	
3.600	0.207	0.007	
3.605	0.029	0.017	
3.610	-0.107	0.026	
3.615	0.134	0.023	
3.620	0.122	0.031	
3.625	-0.119	0.041	
3.630	0.021	0.034	
3.635	0.174	0.029	
3.640	-0.107	0.033	
3.645	-0.124	0.021	
3.650	0.105	0.000	
3.655	-0.085	-0.010	
3.660	-0.185	-0.025	
3.665	0.000	-0.049	
3.670	0.003	-0.060	
3.675	-0.180	-0.062	
3.680	-0.093	-0.073	
3.685	0.027	-0.080	
3.690	-0.163	-0.078	
3.695	-0.151	-0.084	
3.700	0.064	-0.089	
3.705	-0.120	-0.082	
3.710	-0.223	-0.082	
3.715	0.011	-0.092	
3.720	0.101	-0.085	
3.725	-0.017	-0.057	
3.730	0.315	-0.015	
3.735	0.700	0.069	
3.740	0.486	0.199	
3.745	0.453	0.325	
3.750	0.687	0.422	
3.755	0.299	0.490	
3.760	-0.017	0.492	
3.765	0.218	0.424	
3.770	0.094	0.336	
3.775	-0.197	0.241	
3.780	-0.122	0.130	
3.785	-0.002	0.031	
3.790	-0.180	-0.037	
3.795	-0.194	-0.090	
3.800	-0.032	-0.127	
3.805	-0.182	-0.142	
3.810	-0.270	-0.154	
3.815	-0.084	-0.168	
3.820	-0.104	-0.169	
3.825	-0.273	-0.165	
3.830	-0.145	-0.169	
3.835	0.041	-0.164	
3.840	-0.171	-0.142	
3.845	-0.163	-0.126	
3.850	0.046	-0.116	
3.855	-0.079	-0.097	
3.860	-0.195	-0.083	
3.865	0.020	-0.082	
3.870	-0.017	-0.075	
3.875	-0.194	-0.067	
3.880	-0.070	-0.072	
3.885	0.070	-0.074	
3.890	-0.160	-0.065	
3.895	-0.151	-0.067	
3.900	0.114	-0.072	
3.905	-0.015	-0.058	
3.910	-0.157	-0.044	
3.915	0.050	-0.042	
3.920	0.050	-0.033	
3.925	-0.160	-0.023	
3.930	0.038	-0.025	
3.935	0.230	-0.014	
3.940	-0.046	0.014	
3.945	-0.017	0.031	
3.950	0.277	0.043	
3.955	0.097	0.070	
3.960	-0.058	0.090	
3.965	0.218	0.092	
3.970	0.209	0.103	
3.975	-0.049	0.117	
3.980	0.140	0.113	
3.985	0.306	0.116	
3.990	-0.023	0.129	
3.995	-0.067	0.121	
4.000	0.149	0.094	
4.005	-0.056	0.072	
4.010	-0.183	0.041	
4.015	0.024	-0.001	
4.020	-0.044	-0.029	
4.025	-0.235	-0.051	
4.030	-0.146	-0.083	
4.035	-0.050	-0.110	
4.040	-0.246	-0.126	
4.045	-0.262	-0.148	
4.050	-0.095	-0.171	
4.055	-0.201	-0.181	
4.060	-0.290	-0.189	
4.065	-0.136	-0.200	
4.070	-0.130	-0.201	
4.075	-0.270	-0.194	
4.080	-0.156	-0.194	
4.085	-0.034	-0.186	
4.090	-0.230	-0.169	
4.095	-0.221	-0.162	
4.100	-0.021	-0.161	
4.105	-0.163	-0.150	
4.110	-0.262	-0.146	
4.115	-0.070	-0.151	
4.120	-0.052	-0.147	
4.125	-0.246	-0.137	
4.130	-0.125	-0.138	
4.135	0.050	-0.133	
4.140	-0.163	-0.115	
4.145	-0.180	-0.106	
4.150	0.038	-0.104	
4.155	-0.107	-0.094	
4.160	-0.195	-0.089	
4.165	0.001	-0.093	
4.170	-0.003	-0.086	
4.175	-0.186	-0.076	
4.180	-0.061	-0.077	
4.185	0.107	-0.073	
4.190	-0.153	-0.057	
4.195	-0.140	-0.055	
4.200	0.084	-0.059	
4.205	-0.098	-0.054	
4.210	-0.191	-0.055	
4.215	0.043	-0.066	
4.220	0.000	-0.064	
4.225	-0.203	-0.058	
4.230	-0.082	-0.067	
4.235	0.099	-0.072	
4.240	-0.134	-0.062	
4.245	-0.125	-0.059	
4.250	0.145	-0.058	
4.255	-0.049	-0.041	
4.260	-0.157	-0.030	
4.265	0.084	-0.032	
4.270	0.081	-0.023	
4.275	-0.131	-0.009	
4.280	0.017	-0.008	
4.285	0.149	-0.004	
4.290	-0.087	0.010	
4.295	-0.114	0.008	
4.300	0.072	-0.006	
4.305	-0.107	-0.015	
4.310	-0.203	-0.032	
4.315	0.021	-0.058	
4.320	0.023	-0.066	
4.325	-0.183	-0.063	
4.330	-0.056	-0.069	
4.335	0.149	-0.065	
4.340	-0.117	-0.046	
4.345	-0.110	-0.037	
4.350	0.174	-0.033	
4.355	-0.026	-0.016	
4.360	-0.163	-0.006	
4.365	0.082	-0.012	
4.370	0.096	-0.009	
4.375	-0.130	0.001	
4.380	-0.012	-0.002	
4.385	0.133	-0.004	
4.390	-0.117	0.001	
4.395	-0.105	-0.005	
4.400	0.128	-0.017	
4.405	-0.076	-0.016	
4.410	-0.183	-0.022	
4.415	0.040	-0.040	
4.420	0.047	-0.044	
4.425	-0.160	-0.039	
4.430	-0.043	-0.044	
4.435	0.160	-0.042	
4.440	-0.108	-0.026	
4.445	-0.107	-0.020	
4.450	0.149	-0.022	
4.455	-0.040	-0.012	
4.460	-0.156	-0.008	
4.465	0.078	-0.018	
4.470	0.056	-0.017	
4.475	-0.156	-0.011	
4.480	-0.005	-0.019	
4.485	0.183	-0.018	
4.490	-0.089	-0.002	
4.495	-0.070	0.004	
4.500	0.187	0.004	
4.505	-0.056	0.014	
4.510	-0.163	0.013	
4.515	0.119	-0.002	
4.520	0.084	-0.002	
4.525	-0.163	0.004	
4.530	-0.031	-0.006	
4.535	0.125	-0.015	
4.540	-0.143	-0.013	
4.545	-0.137	-0.023	
4.550	0.123	-0.038	
4.555	-0.058	-0.035	
4.560	-0.160	-0.035	
4.565	0.087	-0.042	
4.570	0.072	-0.033	
4.575	-0.146	-0.019	
4.580	0.001	-0.019	
4.585	0.166	-0.014	
4.590	-0.117	0.001	
4.595	-0.108	-0.000	
4.600	0.197	-0.007	
4.605	-0.006	0.004	
4.610	-0.136	0.011	
4.615	0.079	0.003	
4.620	0.084	0.003	
4.625	-0.157	0.007	
4.630	-0.015	-0.004	
4.635	0.165	-0.009	
4.640	-0.114	-0.001	
4.645	-0.095	-0.004	
4.650	0.177	-0.011	
4.655	-0.032	-0.002	
4.660	-0.142	0.002	
4.665	0.130	-0.005	
4.670	0.139	0.004	
4.675	-0.093	0.022	
4.680	0.068	0.028	
4.685	0.232	0.038	
4.690	-0.073	0.058	
4.695	-0.049	0.058	
4.700	0.232	0.050	
4.705	-0.027	0.055	
4.710	-0.160	0.048	
4.715	0.075	0.023	
4.720	0.033	0.008	
4.725	-0.194	-0.004	
4.730	-0.064	-0.028	
4.735	0.078	-0.046	
4.740	-0.178	-0.050	
4.745	-0.159	-0.063	
4.750	0.078	-0.077	
4.755	-0.104	-0.075	
4.760	-0.207	-0.075	
4.765	-0.015	-0.086	
4.770	-0.049	-0.089	
4.775	-0.233	-0.090	
4.780	-0.114	-0.103	
4.785	0.024	-0.110	
4.790	-0.105	-0.102	
4.795	0.049	-0.085	
4.800	0.486	-0.039	
4.805	0.433	0.058	
4.810	0.357	0.174	
4.815	0.663	0.282	
4.820	0.518	0.385	
4.825	0.061	0.446	
4.830	0.186	0.431	
4.835	0.258	0.377	
4.840	-0.099	0.308	
4.845	-0.111	0.215	
4.850	0.070	0.118	
4.855	-0.133	0.044	
4.860	-0.233	-0.021	
4.865	-0.069	-0.079	
4.870	-0.107	-0.116	
4.875	-0.253	-0.137	
4.880	-0.151	-0.157	
4.885	-0.046	-0.166	
4.890	-0.239	-0.162	
4.895	-0.217	-0.164	
4.900	0.021	-0.165	
4.905	-0.139	-0.149	
4.910	-0.232	-0.137	
4.915	-0.037	-0.135	
4.920	-0.046	-0.125	
4.925	-0.213	-0.113	
4.930	-0.090	-0.112	
4.935	0.070	-0.106	
4.940	-0.108	-0.086	
4.945	-0.058	-0.070	
4.950	0.189	-0.051	
4.955	-0.069	-0.020	
4.960	-0.192	-0.008	
4.965	-0.003	-0.022	
4.970	-0.014	-0.034	
4.975	-0.175	-0.043	
4.980	0.014	-0.056	
4.985	0.165	-0.051	
4.990	-0.130	-0.030	
4.995	-0.101	-0.023	
5.000	0.212	-0.020	
5.005	0.024	0.000	
5.010	-0.082	0.019	
5.015	0.163	0.025	
5.020	0.123	0.041	
5.025	-0.102	0.055	
5.030	0.108	0.053	
5.035	0.311	0.062	
5.040	0.003	0.089	
5.045	0.020	0.101	
5.050	0.303	0.104	
5.055	0.076	0.119	
5.060	-0.078	0.122	
5.065	0.180	0.105	
5.070	0.125	0.097	
5.075	-0.149	0.087	
5.080	-0.047	0.056	
5.085	0.044	0.022	
5.090	-0.207	-0.007	
5.095	-0.226	-0.047	
5.100	-0.058	-0.092	
5.105	-0.197	-0.121	
5.110	-0.271	-0.147	
5.115	-0.120	-0.172	
5.120	-0.133	-0.182	
5.125	-0.279	-0.184	
5.130	-0.165	-0.191	
5.135	-0.052	-0.189	
5.140	-0.253	-0.178	
5.145	-0.241	-0.176	
5.150	-0.056	-0.179	
5.155	-0.166	-0.172	
5.160	-0.242	-0.166	
5.165	-0.075	-0.165	
5.170	-0.124	-0.159	
5.175	-0.276	-0.154	
5.180	-0.145	-0.161	
5.185	-0.027	-0.162	
5.190	-0.213	-0.152	
5.195	-0.177	-0.148	
5.200	0.030	-0.143	
5.205	-0.140	-0.127	
5.210	-0.229	-0.117	
5.215	-0.031	-0.120	
5.220	-0.056	-0.115	
5.225	-0.226	-0.108	
5.230	-0.084	-0.113	
5.235	0.079	-0.108	
5.240	-0.136	-0.089	
5.245	-0.108	-0.077	
5.250	0.113	-0.068	
5.255	-0.076	-0.049	
5.260	-0.171	-0.040	
5.265	0.062	-0.045	
5.270	0.021	-0.040	
5.275	-0.186	-0.034	
5.280	-0.050	-0.043	
5.285	0.096	-0.049	
5.290	-0.172	-0.044	
5.295	-0.131	-0.051	
5.300	0.122	-0.059	
5.305	-0.093	-0.052	
5.310	-0.183	-0.050	
5.315	0.055	-0.058	
5.320	0.030	-0.054	
5.325	-0.168	-0.044	
5.330	-0.024	-0.046	
5.335	0.113	-0.044	
5.340	-0.145	-0.032	
5.345	-0.113	-0.033	
5.350	0.113	-0.040	
5.355	-0.064	-0.034	
5.360	-0.139	-0.031	
5.365	0.146	-0.033	
5.370	0.075	-0.018	
5.375	-0.182	-0.002	
5.380	-0.064	-0.010	
5.385	0.084	-0.022	
5.390	-0.146	-0.026	
5.395	-0.117	-0.038	
5.400	0.148	-0.048	
5.405	-0.078	-0.039	
5.410	-0.165	-0.036	
5.415	0.072	-0.043	
5.420	0.000	-0.039	
5.425	-0.183	-0.036	
5.430	-0.023	-0.045	
5.435	0.158	-0.045	
5.440	-0.139	-0.029	
5.445	-0.122	-0.027	
5.450	0.168	-0.031	
5.455	-0.031	-0.019	
5.460	-0.136	-0.011	
5.465	0.136	-0.012	
5.470	0.096	-0.000	
5.475	-0.142	0.014	
5.480	0.030	0.012	
5.485	0.158	0.012	
5.490	-0.111	0.020	
5.495	-0.089	0.014	
5.500	0.160	0.002	
5.505	-0.058	0.004	
5.510	-0.140	-0.000	
5.515	0.143	-0.011	
5.520	0.073	-0.005	
5.525	-0.160	0.006	
5.530	-0.023	-0.003	
5.535	0.174	-0.008	
5.540	-0.069	0.003	
5.545	-0.003	0.009	
5.550	0.283	0.020	
5.555	0.003	0.048	
5.560	-0.111	0.061	
5.565	0.175	0.054	
5.570	0.148	0.059	
5.575	-0.119	0.066	
5.580	-0.012	0.053	
5.585	0.117	0.036	
5.590	-0.130	0.025	
5.595	-0.124	0.003	
5.600	0.059	-0.023	
5.605	-0.139	-0.039	
5.610	-0.209	-0.059	
5.615	0.052	-0.081	
5.620	-0.035	-0.083	
5.625	-0.229	-0.081	
5.630	-0.104	-0.092	
5.635	0.043	-0.099	
5.640	-0.162	-0.092	
5.645	-0.139	-0.091	
5.650	0.065	-0.091	
5.655	-0.108	-0.080	
5.660	-0.142	-0.073	
5.665	0.283	-0.061	
5.670	0.389	-0.006	
5.675	0.221	0.081	
5.680	0.535	0.172	
5.685	0.630	0.273	
5.690	0.210	0.365	
5.695	0.128	0.398	
5.700	0.299	0.375	
5.705	0.021	0.330	
5.710	-0.134	0.256	
5.715	0.099	0.166	
5.720	0.000	0.093	
5.725	-0.206	0.036	
5.730	-0.124	-0.024	
5.735	-0.008	-0.070	
5.740	-0.207	-0.096	
5.745	-0.189	-0.119	
5.750	0.011	-0.135	
5.755	-0.157	-0.133	
5.760	-0.230	-0.132	
5.765	-0.015	-0.136	
5.770	-0.056	-0.128	
5.775	-0.207	-0.116	
5.780	-0.044	-0.112	
5.785	0.072	-0.100	
5.790	-0.175	-0.079	
5.795	-0.143	-0.074	
5.800	0.097	-0.074	
5.805	-0.066	-0.062	
5.810	-0.154	-0.053	
5.815	0.090	-0.052	
5.820	0.014	-0.040	
5.825	-0.191	-0.030	
5.830	-0.049	-0.039	
5.835	0.073	-0.046	
5.840	-0.153	-0.044	
5.845	-0.095	-0.049	
5.850	0.175	-0.051	
5.855	-0.009	-0.031	
5.860	-0.120	-0.014	
5.865	0.168	-0.006	
5.870	0.125	0.014	
5.875	-0.099	0.036	
5.880	0.126	0.043	
5.885	0.322	0.060	
5.890	0.029	0.094	
5.895	0.099	0.116	
5.900	0.375	0.133	
5.905	0.082	0.160	
5.910	-0.073	0.165	
5.915	0.236	0.145	
5.920	0.232	0.137	
5.925	-0.060	0.138	
5.930	0.064	0.121	
5.935	0.174	0.101	
5.940	-0.133	0.086	
5.945	-0.140	0.052	
5.950	0.075	0.010	
5.955	-0.140	-0.019	
5.960	-0.233	-0.050	
5.965	-0.064	-0.087	
5.970	-0.113	-0.111	
5.975	-0.276	-0.128	
5.980	-0.165	-0.151	
5.985	-0.099	-0.167	
5.990	-0.253	-0.173	
5.995	-0.212	-0.181	
6.000	-0.044	-0.185	
6.005	-0.188	-0.176	
6.010	-0.252	-0.169	
6.015	-0.067	-0.170	
6.020	-0.140	-0.163	
6.025	-0.291	-0.159	
6.030	-0.145	-0.168	
6.035	-0.072	-0.171	
6.040	-0.246	-0.166	
6.045	-0.232	-0.169	
6.050	-0.058	-0.175	
6.055	-0.198	-0.171	
6.060	-0.253	-0.170	
6.065	-0.014	-0.171	
6.070	-0.079	-0.157	
6.075	-0.239	-0.140	
6.080	-0.099	-0.136	
6.085	0.041	-0.127	
6.090	-0.149	-0.107	
6.095	-0.119	-0.095	
6.100	0.116	-0.084	
6.105	-0.067	-0.061	
6.110	-0.171	-0.047	
6.115	0.018	-0.050	
6.120	-0.047	-0.050	
6.125	-0.206	-0.054	
6.130	-0.050	-0.070	
6.135	0.084	-0.075	
6.140	-0.182	-0.066	
6.145	-0.153	-0.070	
6.150	0.076	-0.078	
6.155	-0.092	-0.071	
6.160	-0.169	-0.068	
6.165	0.091	-0.069	
6.170	0.024	-0.055	
6.175	-0.171	-0.040	
6.180	-0.027	-0.041	
6.185	0.107	-0.039	
6.190	-0.131	-0.029	
6.195	-0.101	-0.030	
6.200	0.146	-0.034	
6.205	-0.073	-0.024	
6.210	-0.174	-0.023	
6.215	0.056	-0.035	
6.220	0.012	-0.036	
6.225	-0.175	-0.035	
6.230	-0.037	-0.045	
6.235	0.081	-0.050	
6.240	-0.157	-0.044	
6.245	-0.095	-0.048	
6.250	0.148	-0.051	
6.255	-0.069	-0.036	
6.260	-0.142	-0.029	
6.265	0.082	-0.032	
6.270	0.003	-0.027	
6.275	-0.177	-0.023	
6.280	-0.012	-0.034	
6.285	0.113	-0.037	
6.290	-0.120	-0.027	
6.295	-0.061	-0.026	
6.300	0.157	-0.025	
6.305	-0.089	-0.012	
6.310	-0.174	-0.012	
6.315	0.096	-0.026	
6.320	0.046	-0.025	
6.325	-0.146	-0.018	
6.330	-0.015	-0.023	
6.335	0.096	-0.025	
6.340	-0.137	-0.020	
6.345	-0.081	-0.026	
6.350	0.175	-0.029	
6.355	-0.064	-0.016	
6.360	-0.154	-0.012	
6.365	0.078	-0.021	
6.370	-0.012	-0.022	
6.375	-0.175	-0.024	
6.380	-0.015	-0.038	
6.385	0.122	-0.042	
6.390	-0.107	-0.030	
6.395	-0.066	-0.026	
6.400	0.157	-0.023	
6.405	-0.081	-0.010	
6.410	-0.146	-0.008	
6.415	0.137	-0.017	
6.420	0.050	-0.010	
6.425	-0.156	-0.001	
6.430	0.000	-0.008	
6.435	0.110	-0.012	
6.440	-0.162	-0.010	
6.445	-0.089	-0.020	
6.450	0.200	-0.028	
6.455	-0.031	-0.014	
6.460	-0.130	-0.004	
6.465	0.169	-0.004	
6.470	0.072	0.010	
6.475	-0.159	0.022	
6.480	0.038	0.014	
6.485	0.219	0.014	
6.490	-0.063	0.031	
6.495	0.000	0.037	
6.500	0.253	0.043	
6.505	-0.041	0.059	
6.510	-0.117	0.058	
6.515	0.175	0.043	
6.520	0.110	0.043	
6.525	-0.119	0.048	
6.530	0.040	0.037	
6.535	0.122	0.029	
6.540	-0.145	0.026	
6.545	-0.098	0.007	
6.550	0.139	-0.012	
6.555	-0.095	-0.016	
6.560	-0.166	-0.025	
6.565	0.068	-0.041	
6.570	-0.002	-0.043	
6.575	-0.194	-0.042	
6.580	-0.037	-0.053	
6.585	0.081	-0.058	
6.590	-0.166	-0.051	
6.595	-0.166	-0.058	
6.600	-0.002	-0.073	
6.605	-0.169	-0.083	
6.610	-0.233	-0.099	
6.615	0.058	-0.115	
6.620	0.171	-0.100	
6.625	0.053	-0.053	
6.630	0.415	0.012	
6.635	0.648	0.112	
6.640	0.383	0.237	
6.645	0.398	0.339	
6.650	0.593	0.408	
6.655	0.206	0.449	
6.660	-0.015	0.432	
6.665	0.261	0.364	
6.670	0.079	0.290	
6.675	-0.186	0.211	
6.680	-0.037	0.118	
6.685	0.087	0.043	
6.690	-0.207	-0.006	
6.695	-0.201	-0.053	
6.700	-0.047	-0.096	
6.705	-0.200	-0.123	
6.710	-0.247	-0.145	
6.715	-0.055	-0.164	
6.720	-0.102	-0.164	
6.725	-0.267	-0.158	
6.730	-0.131	-0.162	
6.735	-0.021	-0.159	
6.740	-0.201	-0.145	
6.745	-0.140	-0.138	
6.750	0.067	-0.128	
6.755	-0.117	-0.105	
6.760	-0.177	-0.091	
6.765	0.064	-0.085	
6.770	-0.027	-0.071	
6.775	-0.195	-0.059	
6.780	-0.014	-0.062	
6.785	0.137	-0.056	
6.790	-0.122	-0.037	
6.795	-0.081	-0.029	
6.800	0.102	-0.028	
6.805	-0.110	-0.022	
6.810	-0.133	-0.026	
6.815	0.140	-0.035	
6.820	0.018	-0.025	
6.825	-0.159	-0.014	
6.830	0.047	-0.018	
6.835	0.206	-0.010	
6.840	-0.066	0.014	
6.845	0.043	0.028	
6.850	0.358	0.048	
6.855	0.076	0.087	
6.860	-0.046	0.112	
6.865	0.262	0.115	
6.870	0.195	0.126	
6.875	-0.063	0.136	
6.880	0.160	0.126	
6.885	0.264	0.122	
6.890	-0.055	0.127	
6.895	0.006	0.113	
6.900	0.239	0.094	
6.905	-0.053	0.088	
6.910	-0.195	0.065	
6.915	-0.049	0.020	
6.920	-0.119	-0.026	
6.925	-0.282	-0.069	
6.930	-0.149	-0.116	
6.935	-0.090	-0.149	
6.940	-0.281	-0.166	
6.945	-0.235	-0.184	
6.950	-0.075	-0.197	
6.955	-0.232	-0.196	
6.960	-0.277	-0.197	
6.965	-0.079	-0.201	
6.970	-0.130	-0.192	
6.975	-0.277	-0.180	
6.980	-0.139	-0.179	
6.985	-0.040	-0.173	
6.990	-0.224	-0.159	
6.995	-0.204	-0.154	
7.000	-0.047	-0.155	
7.005	-0.210	-0.150	
7.010	-0.267	-0.154	
7.015	-0.076	-0.165	
7.020	-0.125	-0.166	
7.025	-0.242	-0.161	
7.030	-0.087	-0.162	
7.035	0.009	-0.151	
7.040	-0.197	-0.130	
7.045	-0.146	-0.120	
7.050	0.067	-0.113	
7.055	-0.114	-0.094	
7.060	-0.177	-0.083	
7.065	0.043	-0.082	
7.070	-0.044	-0.073	
7.075	-0.185	-0.065	
7.080	-0.011	-0.069	
7.085	0.081	-0.064	
7.090	-0.145	-0.050	
7.095	-0.122	-0.048	
7.100	0.065	-0.054	
7.105	-0.124	-0.052	
7.110	-0.180	-0.058	
7.115	0.043	-0.071	
7.120	-0.038	-0.070	
7.125	-0.197	-0.067	
7.130	-0.027	-0.075	
7.135	0.087	-0.072	
7.140	-0.130	-0.057	
7.145	-0.072	-0.050	
7.150	0.149	-0.043	
7.155	-0.096	-0.026	
7.160	-0.169	-0.022	
7.165	0.091	-0.032	
7.170	0.006	-0.030	
7.175	-0.168	-0.027	
7.180	0.008	-0.035	
7.185	0.131	-0.033	
7.190	-0.137	-0.020	
7.195	-0.066	-0.020	
7.200	0.165	-0.021	
7.205	-0.075	-0.009	
7.210	-0.171	-0.008	
7.215	0.026	-0.025	
7.220	-0.047	-0.036	
7.225	-0.175	-0.046	
7.230	0.073	-0.057	
7.235	0.165	-0.046	
7.240	-0.160	-0.021	
7.245	-0.107	-0.017	
7.250	0.114	-0.024	
7.255	-0.098	-0.022	
7.260	-0.165	-0.028	
7.265	0.102	-0.041	
7.270	0.000	-0.038	
7.275	-0.163	-0.032	
7.280	0.032	-0.037	
7.285	0.146	-0.030	
7.290	-0.127	-0.012	
7.295	-0.070	-0.010	
7.300	0.155	-0.011	
7.305	-0.079	-0.003	
7.310	-0.122	-0.004	
7.315	0.174	-0.011	
7.320	0.033	0.000	
7.325	-0.160	0.009	
7.330	-0.017	-0.002	
7.335	0.055	-0.014	
7.340	-0.166	-0.020	
7.345	-0.095	-0.037	
7.350	0.133	-0.049	
7.355	-0.076	-0.041	
7.360	-0.136	-0.037	
7.365	0.131	-0.038	
7.370	0.015	-0.025	
7.375	-0.168	-0.014	
7.380	0.018	-0.020	
7.385	0.140	-0.019	
7.390	-0.124	-0.007	
7.395	-0.046	-0.007	
7.400	0.139	-0.009	
7.405	-0.117	-0.003	
7.410	-0.157	-0.011	
7.415	0.126	-0.027	
7.420	0.043	-0.024	
7.425	-0.153	-0.015	
7.430	0.008	-0.020	
7.435	0.099	-0.020	
7.440	-0.140	-0.014	
7.445	-0.063	-0.019	
7.450	0.168	-0.023	
7.455	-0.108	-0.013	
7.460	-0.177	-0.016	
7.465	0.073	-0.033	
7.470	0.009	-0.036	
7.475	-0.160	-0.034	
7.480	0.023	-0.040	
7.485	0.113	-0.036	
7.490	-0.128	-0.021	
7.495	-0.041	-0.019	
7.500	0.197	-0.015	
7.505	-0.075	0.003	
7.510	-0.160	0.006	
7.515	0.084	-0.008	
7.520	-0.027	-0.015	
7.525	-0.186	-0.022	
7.530	0.018	-0.040	
7.535	0.120	-0.042	
7.540	-0.105	-0.028	
7.545	-0.055	-0.023	
7.550	0.149	-0.019	
7.555	-0.102	-0.007	
7.560	-0.157	-0.010	
7.565	0.102	-0.024	
7.570	0.011	-0.024	
7.575	-0.157	-0.021	
7.580	0.038	-0.028	
7.585	0.099	-0.025	
7.590	-0.151	-0.015	
7.595	-0.076	-0.021	
7.600	0.146	-0.027	
7.605	-0.095	-0.019	
7.610	-0.140	-0.020	
7.615	0.148	-0.028	
7.620	0.072	-0.016	
7.625	-0.139	0.000	
7.630	0.046	0.000	
7.635	0.137	0.005	
7.640	-0.101	0.016	
7.645	-0.009	0.015	
7.650	0.268	0.019	
7.655	0.001	0.042	
7.660	-0.099	0.053	
7.665	0.178	0.048	
7.670	0.117	0.054	
7.675	-0.116	0.061	
7.680	0.058	0.050	
7.685	0.125	0.041	
7.690	-0.148	0.037	
7.695	-0.098	0.015	
7.700	0.050	-0.011	
7.705	-0.154	-0.030	
7.710	-0.197	-0.054	
7.715	0.017	-0.080	
7.720	-0.047	-0.088	
7.725	-0.194	-0.089	
7.730	-0.032	-0.094	
7.735	0.044	-0.089	
7.740	-0.183	-0.076	
7.745	-0.104	-0.075	
7.750	0.110	-0.074	
7.755	-0.133	-0.060	
7.760	-0.197	-0.059	
7.765	0.072	-0.068	
7.770	0.076	-0.059	
7.775	-0.014	-0.034	
7.780	0.395	0.005	
7.785	0.622	0.088	
7.790	0.346	0.204	
7.795	0.500	0.307	
7.800	0.730	0.397	
7.805	0.285	0.471	
7.810	0.012	0.482	
7.815	0.216	0.422	
7.820	0.023	0.336	
7.825	-0.178	0.236	
7.830	-0.041	0.126	
7.835	-0.014	0.036	
7.840	-0.236	-0.029	
7.845	-0.177	-0.086	
7.850	-0.020	-0.127	
7.855	-0.192	-0.142	
7.860	-0.221	-0.152	
7.865	-0.012	-0.159	
7.870	-0.096	-0.149	
7.875	-0.233	-0.136	
7.880	-0.099	-0.136	
7.885	-0.078	-0.134	
7.890	-0.241	-0.131	
7.895	-0.191	-0.140	
7.900	-0.018	-0.148	
7.905	-0.166	-0.143	
7.910	-0.197	-0.139	
7.915	0.009	-0.137	
7.920	-0.081	-0.123	
7.925	-0.192	-0.109	
7.930	0.011	-0.103	
7.935	0.073	-0.086	
7.940	-0.154	-0.061	
7.945	-0.081	-0.052	
7.950	0.117	-0.048	
7.955	-0.090	-0.033	
7.960	-0.113	-0.028	
7.965	0.152	-0.028	
7.970	0.014	-0.014	
7.975	-0.149	-0.002	
7.980	0.081	-0.006	
7.985	0.165	0.002	
7.990	-0.098	0.019	
7.995	0.015	0.024	
8.000	0.261	0.031	
8.005	0.012	0.054	
8.010	-0.038	0.066	
8.015	0.241	0.069	
8.020	0.120	0.083	
8.025	-0.049	0.095	
8.030	0.216	0.094	
8.035	0.244	0.105	
8.040	-0.038	0.122	
8.045	0.072	0.119	
8.050	0.247	0.112	
8.055	-0.070	0.110	
8.060	-0.166	0.086	
8.065	0.011	0.041	
8.070	-0.098	-0.000	
8.075	-0.233	-0.040	
8.080	-0.087	-0.082	
8.085	-0.046	-0.108	
8.090	-0.246	-0.121	
8.095	-0.213	-0.140	
8.100	-0.101	-0.159	
8.105	-0.253	-0.169	
8.110	-0.271	-0.184	
8.115	-0.101	-0.199	
8.120	-0.178	-0.199	
8.125	-0.296	-0.197	
8.130	-0.153	-0.203	
8.135	-0.108	-0.201	
8.140	-0.276	-0.192	
8.145	-0.188	-0.192	
8.150	-0.024	-0.187	
8.155	-0.186	-0.170	
8.160	-0.213	-0.158	
8.165	-0.009	-0.152	
8.170	-0.105	-0.136	
8.175	-0.220	-0.124	
8.180	-0.038	-0.122	
8.185	0.011	-0.111	
8.190	-0.215	-0.096	
8.195	-0.157	-0.098	
8.200	-0.009	-0.105	
8.205	-0.198	-0.107	
8.210	-0.198	-0.116	
8.215	0.053	-0.124	
8.220	-0.058	-0.112	
8.225	-0.195	-0.097	
8.230	-0.027	-0.094	
8.235	0.012	-0.086	
8.240	-0.180	-0.075	
8.245	-0.078	-0.075	
8.250	0.126	-0.071	
8.255	-0.111	-0.053	
8.260	-0.142	-0.045	
8.265	0.072	-0.048	
8.270	-0.041	-0.042	
8.275	-0.168	-0.040	
8.280	0.032	-0.047	
8.285	0.067	-0.044	
8.290	-0.169	-0.034	
8.295	-0.072	-0.039	
8.300	0.133	-0.043	
8.305	-0.104	-0.032	
8.310	-0.142	-0.031	
8.315	0.123	-0.037	
8.320	0.000	-0.028	
8.325	-0.166	-0.021	
8.330	-0.018	-0.029	
8.335	0.043	-0.036	
8.340	-0.168	-0.037	
8.345	-0.061	-0.047	
8.350	0.137	-0.050	
8.355	-0.117	-0.038	
8.360	-0.140	-0.036	
8.365	0.120	-0.041	
8.370	-0.024	-0.033	
8.375	-0.180	-0.027	
8.380	0.023	-0.037	
8.385	0.047	-0.038	
8.390	-0.194	-0.036	
8.395	-0.098	-0.048	
8.400	0.136	-0.057	
8.405	-0.098	-0.047	
8.410	-0.107	-0.041	
8.415	0.209	-0.036	
8.420	0.011	-0.011	
8.425	-0.165	0.006	
8.430	0.021	-0.001	
8.435	0.079	-0.006	
8.440	-0.157	-0.006	
8.445	-0.043	-0.018	
8.450	0.207	-0.022	
8.455	-0.096	-0.007	
8.460	-0.153	-0.005	
8.465	0.091	-0.017	
8.470	-0.032	-0.020	
8.475	-0.169	-0.024	
8.480	0.018	-0.038	
8.485	0.062	-0.041	
8.490	-0.163	-0.036	
8.495	-0.046	-0.041	
8.500	0.143	-0.041	
8.505	-0.127	-0.028	
8.510	-0.145	-0.029	
8.515	0.134	-0.036	
8.520	-0.011	-0.028	
8.525	-0.162	-0.021	
8.530	0.067	-0.026	
8.535	0.134	-0.019	
8.540	-0.143	-0.003	
8.545	-0.056	-0.004	
8.550	0.166	-0.008	
8.555	-0.099	-0.001	
8.560	-0.096	-0.003	
8.565	0.183	-0.008	
8.570	0.029	0.004	
8.575	-0.154	0.014	
8.580	-0.003	0.003	
8.585	0.018	-0.010	
8.590	-0.191	-0.021	
8.595	-0.085	-0.044	
8.600	0.116	-0.058	
8.605	-0.105	-0.052	
8.610	-0.119	-0.050	
8.615	0.140	-0.049	
8.620	-0.023	-0.033	
8.625	-0.157	-0.022	
8.630	0.056	-0.025	
8.635	0.128	-0.019	
8.640	-0.130	-0.003	
8.645	-0.034	-0.003	
8.650	0.157	-0.004	
8.655	-0.102	0.004	
8.660	-0.119	0.000	
8.665	0.181	-0.009	
8.670	-0.035	-0.003	
8.675	-0.180	-0.002	
8.680	-0.006	-0.020	
8.685	0.049	-0.032	
8.690	-0.168	-0.035	
8.695	-0.044	-0.046	
8.700	0.165	-0.047	
8.705	-0.096	-0.030	
8.710	-0.133	-0.023	
8.715	0.186	-0.024	
8.720	0.079	-0.005	
8.725	-0.107	0.016	
8.730	0.113	0.022	
8.735	0.175	0.035	
8.740	-0.098	0.052	
8.745	0.049	0.052	
8.750	0.270	0.054	
8.755	-0.041	0.071	
8.760	-0.084	0.071	
8.765	0.206	0.058	
8.770	0.015	0.056	
8.775	-0.159	0.049	
8.780	0.015	0.023	
8.785	0.024	0.001	
8.790	-0.182	-0.015	
8.795	-0.098	-0.041	
8.800	0.094	-0.059	
8.805	-0.145	-0.059	
8.810	-0.131	-0.064	
8.815	0.113	-0.068	
8.820	-0.081	-0.056	
8.825	-0.200	-0.052	
8.830	0.008	-0.062	
8.835	0.027	-0.063	
8.840	-0.200	-0.058	
8.845	-0.113	-0.067	
8.850	0.046	-0.077	
8.855	-0.162	-0.076	
8.860	-0.119	-0.080	
8.865	0.309	-0.071	
8.870	0.288	-0.017	
8.875	0.206	0.063	
8.880	0.594	0.150	
8.885	0.594	0.257	
8.890	0.201	0.354	
8.895	0.258	0.394	
8.900	0.361	0.391	
8.905	-0.034	0.361	
8.910	-0.107	0.288	
8.915	0.134	0.194	
8.920	-0.067	0.116	
8.925	-0.203	0.047	
8.930	-0.017	-0.018	
8.935	-0.038	-0.060	
8.940	-0.232	-0.084	
8.945	-0.142	-0.110	
8.950	-0.002	-0.127	
8.955	-0.195	-0.127	
8.960	-0.213	-0.132	
8.965	-0.009	-0.139	
8.970	-0.119	-0.133	
8.975	-0.241	-0.128	
8.980	-0.069	-0.133	
8.985	-0.034	-0.130	
8.990	-0.200	-0.120	
8.995	-0.105	-0.118	
9.000	0.012	-0.113	
9.005	-0.188	-0.103	
9.010	-0.168	-0.103	
9.015	0.073	-0.105	
9.020	-0.075	-0.091	
9.025	-0.172	-0.079	
9.030	0.059	-0.075	
9.035	0.073	-0.058	
9.040	-0.127	-0.036	
9.045	0.014	-0.026	
9.050	0.172	-0.013	
9.055	-0.090	0.008	
9.060	-0.064	0.014	
9.065	0.206	0.013	
9.070	-0.014	0.026	
9.075	-0.149	0.029	
9.080	0.093	0.015	
9.085	0.137	0.013	
9.090	-0.098	0.022	
9.095	0.085	0.024	
9.100	0.302	0.038	
9.105	0.004	0.069	
9.110	0.023	0.088	
9.115	0.315	0.097	
9.120	0.117	0.120	
9.125	-0.084	0.130	
9.130	0.169	0.117	
9.135	0.172	0.108	
9.140	-0.099	0.103	
9.145	0.004	0.081	
9.150	0.137	0.057	
9.155	-0.159	0.040	
9.160	-0.180	0.008	
9.165	0.041	-0.031	
9.170	-0.124	-0.055	
9.175	-0.276	-0.079	
9.180	-0.136	-0.113	
9.185	-0.120	-0.140	
9.190	-0.293	-0.159	
9.195	-0.212	-0.181	
9.200	-0.075	-0.195	
9.205	-0.239	-0.193	
9.210	-0.247	-0.194	
9.215	-0.046	-0.194	
9.220	-0.178	-0.183	
9.225	-0.279	-0.175	
9.230	-0.101	-0.177	
9.235	-0.098	-0.172	
9.240	-0.273	-0.164	
9.245	-0.163	-0.167	
9.250	-0.015	-0.166	
9.255	-0.212	-0.154	
9.260	-0.212	-0.149	
9.265	-0.020	-0.150	
9.270	-0.149	-0.141	
9.275	-0.233	-0.136	
9.280	-0.012	-0.138	
9.285	0.001	-0.125	
9.290	-0.183	-0.104	
9.295	-0.093	-0.096	
9.300	0.049	-0.089	
9.305	-0.178	-0.077	
9.310	-0.169	-0.079	
9.315	0.068	-0.086	
9.320	-0.120	-0.081	
9.325	-0.229	-0.082	
9.330	-0.037	-0.095	
9.335	0.003	-0.098	
9.340	-0.154	-0.090	
9.345	-0.024	-0.085	
9.350	0.088	-0.072	
9.355	-0.166	-0.053	
9.360	-0.159	-0.052	
9.365	0.102	-0.060	
9.370	-0.040	-0.052	
9.375	-0.140	-0.044	
9.380	0.064	-0.044	
9.385	-0.008	-0.037	
9.390	-0.192	-0.033	
9.395	-0.038	-0.045	
9.400	0.206	-0.045	
9.405	-0.084	-0.024	
9.410	-0.117	-0.013	
9.415	0.122	-0.014	
9.420	-0.082	-0.010	
9.425	-0.197	-0.017	
9.430	0.004	-0.039	
9.435	0.027	-0.050	
9.440	-0.166	-0.051	
9.445	-0.018	-0.057	
9.450	0.137	-0.053	
9.455	-0.137	-0.035	
9.460	-0.127	-0.032	
9.465	0.110	-0.038	
9.470	-0.060	-0.032	
9.475	-0.168	-0.031	
9.480	0.056	-0.041	
9.485	0.067	-0.038	
9.490	-0.154	-0.027	
9.495	-0.064	-0.031	
9.500	0.140	-0.034	
9.505	-0.082	-0.023	
9.510	-0.069	-0.018	
9.515	0.183	-0.013	
9.520	-0.038	0.003	
9.525	-0.177	0.007	
9.530	0.029	-0.009	
9.535	0.061	-0.018	
9.540	-0.137	-0.018	
9.545	-0.015	-0.026	
9.550	0.087	-0.028	
9.555	-0.153	-0.024	
9.560	-0.119	-0.033	
9.565	0.158	-0.042	
9.570	-0.032	-0.031	
9.575	-0.160	-0.023	
9.580	0.068	-0.028	
9.585	0.094	-0.022	
9.590	-0.148	-0.010	
9.595	-0.041	-0.013	
9.600	0.137	-0.017	
9.605	-0.055	-0.007	
9.610	-0.031	-0.001	
9.615	0.171	0.004	
9.620	-0.040	0.019	
9.625	-0.142	0.020	
9.630	0.149	0.009	
9.635	0.157	0.016	
9.640	-0.090	0.034	
9.645	0.079	0.039	
9.650	0.245	0.049	
9.655	-0.069	0.068	
9.660	-0.082	0.066	
9.665	0.137	0.048	
9.670	-0.079	0.036	
9.675	-0.174	0.014	
9.680	0.090	-0.015	
9.685	0.067	-0.023	
9.690	-0.183	-0.021	
9.695	-0.081	-0.033	
9.700	0.024	-0.048	
9.705	-0.194	-0.057	
9.710	-0.186	-0.076	
9.715	0.047	-0.095	
9.720	-0.120	-0.097	
9.725	-0.226	-0.099	
9.730	-0.020	-0.109	
9.735	-0.040	-0.108	
9.740	-0.213	-0.102	
9.745	-0.032	-0.103	
9.750	0.287	-0.084	
9.755	0.075	-0.031	
9.760	0.194	0.030	
9.765	0.614	0.104	
9.770	0.495	0.210	
9.775	0.323	0.312	
9.780	0.497	0.380	
9.785	0.294	0.418	
9.790	-0.108	0.405	
9.795	0.035	0.328	
9.800	0.161	0.236	
9.805	-0.142	0.157	
9.810	-0.153	0.077	
9.815	0.014	0.003	
9.820	-0.156	-0.047	
9.825	-0.232	-0.087	
9.830	-0.049	-0.122	
9.835	-0.067	-0.134	
9.840	-0.244	-0.136	
9.845	-0.114	-0.142	
9.850	0.032	-0.139	
9.855	-0.172	-0.123	
9.860	-0.136	-0.112	
9.865	0.102	-0.102	
9.870	-0.079	-0.079	
9.875	-0.169	-0.063	
9.880	0.020	-0.062	
9.885	-0.012	-0.057	
9.890	-0.206	-0.053	
9.895	-0.061	-0.064	
9.900	0.107	-0.068	
9.905	-0.148	-0.057	
9.910	-0.143	-0.056	
9.915	0.099	-0.061	
9.920	-0.093	-0.054	
9.925	-0.156	-0.052	
9.930	0.133	-0.054	
9.935	0.097	-0.035	
9.940	-0.124	-0.010	
9.945	0.018	-0.002	
9.950	0.172	0.006	
9.955	-0.093	0.022	
9.960	-0.040	0.023	
9.965	0.259	0.023	
9.970	0.032	0.043	
9.975	-0.082	0.055	
9.980	0.247	0.057	
9.985	0.206	0.075	
9.990	-0.020	0.100	
9.995	0.218	0.111	
10.000	0.355	0.132	
10.005	0.030	0.162	
10.010	0.018	0.167	
10.015	0.277	0.154	
10.020	0.064	0.149	
10.025	-0.081	0.134	
10.030	0.133	0.103	
10.035	0.037	0.079	
10.040	-0.172	0.055	
10.045	-0.041	0.016	
10.050	0.008	-0.017	
10.055	-0.238	-0.043	
10.060	-0.238	-0.080	
10.065	-0.095	-0.121	
10.070	-0.244	-0.149	
10.075	-0.308	-0.177	
10.080	-0.134	-0.204	
10.085	-0.165	-0.214	
10.090	-0.288	-0.214	
10.095	-0.175	-0.217	
10.100	-0.101	-0.212	
10.105	-0.271	-0.201	
10.110	-0.210	-0.197	
10.115	-0.031	-0.193	
10.120	-0.188	-0.176	
10.125	-0.259	-0.166	
10.130	-0.055	-0.166	
10.135	-0.104	-0.157	
10.140	-0.277	-0.148	
10.145	-0.149	-0.154	
10.150	-0.002	-0.155	
10.155	-0.195	-0.143	
10.160	-0.178	-0.137	
10.165	0.001	-0.134	
10.170	-0.160	-0.124	
10.175	-0.227	-0.121	
10.180	-0.012	-0.126	
10.185	-0.047	-0.119	
10.190	-0.223	-0.109	
10.195	-0.061	-0.109	
10.200	0.041	-0.103	
10.205	-0.182	-0.089	
10.210	-0.120	-0.086	
10.215	0.131	-0.082	
10.220	-0.099	-0.063	
10.225	-0.175	-0.053	
10.230	0.076	-0.056	
10.235	0.000	-0.048	
10.240	-0.178	-0.040	
10.245	-0.027	-0.046	
10.250	0.096	-0.047	
10.255	-0.154	-0.039	
10.260	-0.130	-0.043	
10.265	0.099	-0.052	
10.270	-0.096	-0.048	
10.275	-0.133	-0.047	
10.280	0.093	-0.051	
10.285	-0.014	-0.041	
10.290	-0.198	-0.035	
10.295	-0.031	-0.046	
10.300	0.155	-0.048	
10.305	-0.133	-0.033	
10.310	-0.149	-0.031	
10.315	0.125	-0.039	
10.320	-0.041	-0.033	
10.325	-0.149	-0.029	
10.330	0.070	-0.034	
10.335	0.030	-0.029	
10.340	-0.156	-0.023	
10.345	0.041	-0.026	
10.350	0.178	-0.018	
10.355	-0.131	0.001	
10.360	-0.093	0.002	
10.365	0.157	-0.005	
10.370	-0.079	-0.001	
10.375	-0.163	-0.007	
10.380	0.059	-0.024	
10.385	0.032	-0.029	
10.390	-0.156	-0.027	
10.395	0.017	-0.034	
10.400	0.136	-0.030	
10.405	-0.145	-0.016	
10.410	-0.117	-0.019	
10.415	0.122	-0.028	
10.420	-0.078	-0.026	
10.425	-0.154	-0.028	
10.430	0.101	-0.038	
10.435	0.062	-0.030	
10.440	-0.143	-0.017	
10.445	0.041	-0.016	
10.450	0.172	-0.007	
10.455	-0.124	0.010	
10.460	-0.076	0.010	
10.465	0.204	0.005	
10.470	-0.058	0.014	
10.475	-0.140	0.014	
10.480	0.117	0.001	
10.485	0.021	-0.001	
10.490	-0.188	-0.002	
10.495	-0.032	-0.021	
10.500	0.097	-0.033	
10.505	-0.130	-0.031	
10.510	-0.085	-0.036	
10.515	0.168	-0.038	
10.520	-0.055	-0.023	
10.525	-0.148	-0.015	
10.530	0.105	-0.020	
10.535	0.082	-0.012	
10.540	-0.096	0.002	
10.545	0.093	0.008	
10.550	0.204	0.023	
10.555	-0.102	0.044	
10.560	-0.041	0.045	
10.565	0.256	0.040	
10.570	0.023	0.053	
10.575	-0.064	0.061	
10.580	0.248	0.060	
10.585	0.161	0.076	
10.590	-0.128	0.090	
10.595	-0.020	0.075	
10.600	0.038	0.048	
10.605	-0.207	0.019	
10.610	-0.143	-0.023	
10.615	0.125	-0.056	
10.620	-0.090	-0.062	
10.625	-0.192	-0.064	
10.630	-0.026	-0.077	
10.635	-0.098	-0.084	
10.640	-0.223	-0.093	
10.645	-0.069	-0.108	
10.650	0.049	-0.110	
10.655	-0.186	-0.098	
10.660	-0.143	-0.096	
10.665	0.082	-0.095	
10.670	-0.114	-0.081	
10.675	-0.124	-0.072	
10.680	0.315	-0.056	
10.685	0.354	0.002	
10.690	0.200	0.086	
10.695	0.544	0.172	
10.700	0.681	0.273	
10.705	0.291	0.374	
10.710	0.255	0.424	
10.715	0.404	0.427	
10.720	0.084	0.402	
10.725	-0.085	0.338	
10.730	0.137	0.246	
10.735	-0.021	0.164	
10.740	-0.224	0.087	
10.745	-0.108	0.006	
10.750	-0.058	-0.057	
10.755	-0.256	-0.100	
10.760	-0.201	-0.139	
10.765	0.020	-0.161	
10.770	-0.156	-0.157	
10.775	-0.218	-0.150	
10.780	-0.015	-0.147	
10.785	-0.098	-0.134	
10.790	-0.239	-0.124	
10.795	-0.075	-0.126	
10.800	0.024	-0.121	
10.805	-0.198	-0.106	
10.810	-0.139	-0.103	
10.815	0.094	-0.100	
10.820	-0.114	-0.083	
10.825	-0.175	-0.074	
10.830	0.065	-0.074	
10.835	-0.020	-0.063	
10.840	-0.210	-0.055	
10.845	-0.031	-0.063	
10.850	0.064	-0.064	
10.855	-0.156	-0.056	
10.860	-0.085	-0.057	
10.865	0.174	-0.054	
10.870	-0.046	-0.032	
10.875	-0.116	-0.018	
10.880	0.183	-0.011	
10.885	0.145	0.012	
10.890	-0.076	0.040	
10.895	0.105	0.050	
10.900	0.216	0.062	
10.905	-0.070	0.078	
10.910	0.024	0.077	
10.915	0.308	0.075	
10.920	0.015	0.090	
10.925	-0.035	0.095	
10.930	0.273	0.090	
10.935	0.158	0.102	
10.940	-0.063	0.113	
10.945	0.192	0.108	
10.950	0.241	0.112	
10.955	-0.098	0.119	
10.960	-0.069	0.100	
10.965	0.116	0.067	
10.970	-0.139	0.039	
10.975	-0.212	0.001	
10.980	-0.018	-0.045	
10.985	-0.102	-0.075	
10.990	-0.258	-0.098	
10.995	-0.122	-0.126	
11.000	-0.105	-0.144	
11.005	-0.291	-0.155	
11.010	-0.253	-0.176	
11.015	-0.105	-0.195	
11.020	-0.241	-0.201	
11.025	-0.274	-0.206	
11.030	-0.067	-0.211	
11.035	-0.133	-0.199	
11.040	-0.291	-0.185	
11.045	-0.154	-0.184	
11.050	-0.082	-0.181	
11.055	-0.220	-0.171	
11.060	-0.140	-0.165	
11.065	0.014	-0.154	
11.070	-0.162	-0.133	
11.075	-0.210	-0.122	
11.080	-0.015	-0.122	
11.085	-0.089	-0.114	
11.090	-0.227	-0.109	
11.095	-0.090	-0.115	
11.100	-0.047	-0.118	
11.105	-0.210	-0.116	
11.110	-0.142	-0.122	
11.115	0.038	-0.123	
11.120	-0.133	-0.110	
11.125	-0.182	-0.102	
11.130	0.030	-0.101	
11.135	-0.066	-0.090	
11.140	-0.201	-0.082	
11.145	-0.041	-0.087	
11.150	0.085	-0.082	
11.155	-0.140	-0.065	
11.160	-0.073	-0.057	
11.165	0.113	-0.051	
11.170	-0.125	-0.037	
11.175	-0.149	-0.037	
11.180	0.140	-0.043	
11.185	0.044	-0.030	
11.190	-0.175	-0.016	
11.195	-0.040	-0.022	
11.200	0.003	-0.032	
11.205	-0.206	-0.043	
11.210	-0.131	-0.065	
11.215	0.088	-0.081	
11.220	-0.101	-0.077	
11.225	-0.148	-0.073	
11.230	0.085	-0.071	
11.235	-0.026	-0.058	
11.240	-0.192	-0.048	
11.245	0.011	-0.053	
11.250	0.123	-0.047	
11.255	-0.136	-0.030	
11.260	-0.037	-0.025	
11.265	0.180	-0.019	
11.270	-0.081	-0.001	
11.275	-0.124	0.003	
11.280	0.140	-0.005	
11.285	-0.002	-0.000	
11.290	-0.162	0.001	
11.295	0.021	-0.013	
11.300	0.101	-0.018	
11.305	-0.153	-0.014	
11.310	-0.081	-0.023	
11.315	0.108	-0.032	
11.320	-0.130	-0.031	
11.325	-0.157	-0.039	
11.330	0.094	-0.051	
11.335	-0.005	-0.047	
11.340	-0.168	-0.040	
11.345	0.052	-0.042	
11.350	0.099	-0.034	
11.355	-0.140	-0.019	
11.360	-0.020	-0.017	
11.365	0.171	-0.013	
11.370	-0.075	0.002	
11.375	-0.120	0.005	
11.380	0.139	-0.003	
11.385	0.030	0.002	
11.390	-0.130	0.008	
11.395	0.059	0.001	
11.400	0.097	0.002	
11.405	-0.145	0.007	
11.410	-0.064	-0.004	
11.415	0.155	-0.014	
11.420	-0.096	-0.009	
11.425	-0.133	-0.013	
11.430	0.110	-0.024	
11.435	-0.052	-0.024	
11.440	-0.192	-0.028	
11.445	0.026	-0.043	
11.450	0.136	-0.043	
11.455	-0.133	-0.028	
11.460	-0.076	-0.024	
11.465	0.140	-0.025	
11.470	-0.084	-0.015	
11.475	-0.113	-0.014	
11.480	0.137	-0.019	
11.485	-0.005	-0.010	
11.490	-0.139	-0.005	
11.495	0.053	-0.012	
11.500	0.093	-0.010	
11.505	-0.143	-0.003	
11.510	-0.050	-0.010	
11.515	0.190	-0.014	
11.520	-0.081	-0.002	
11.525	-0.153	-0.002	
11.530	0.084	-0.015	
11.535	-0.021	-0.019	
11.540	-0.154	-0.023	
11.545	0.056	-0.033	
11.550	0.078	-0.030	
11.555	-0.151	-0.021	
11.560	-0.076	-0.026	
11.565	0.171	-0.030	
11.570	-0.046	-0.016	
11.575	-0.087	-0.007	
11.580	0.212	-0.001	
11.585	0.070	0.020	
11.590	-0.110	0.038	
11.595	0.134	0.040	
11.600	0.174	0.048	
11.605	-0.120	0.060	
11.610	-0.034	0.050	
11.615	0.183	0.036	
11.620	-0.079	0.034	
11.625	-0.104	0.023	
11.630	0.192	0.009	
11.635	0.062	0.016	
11.640	-0.139	0.025	
11.645	0.032	0.016	
11.650	0.056	0.008	
11.655	-0.177	0.001	
11.660	-0.090	-0.020	
11.665	0.137	-0.037	
11.670	-0.114	-0.036	
11.675	-0.151	-0.039	
11.680	0.079	-0.049	
11.685	-0.102	-0.050	
11.690	-0.206	-0.056	
11.695	-0.026	-0.074	
11.700	-0.027	-0.082	
11.705	-0.232	-0.085	
11.710	-0.159	-0.101	
11.715	0.023	-0.115	
11.720	-0.113	-0.110	
11.725	-0.049	-0.100	
11.730	0.384	-0.068	
11.735	0.360	0.010	
11.740	0.241	0.108	
11.745	0.617	0.204	
11.750	0.687	0.313	
11.755	0.309	0.415	
11.760	0.328	0.464	
11.765	0.395	0.465	
11.770	-0.002	0.432	
11.775	-0.104	0.349	
11.780	0.111	0.239	
11.785	-0.084	0.142	
11.790	-0.224	0.056	
11.795	-0.070	-0.025	
11.800	-0.075	-0.080	
11.805	-0.274	-0.115	
11.810	-0.194	-0.149	
11.815	-0.052	-0.171	
11.820	-0.203	-0.173	
11.825	-0.223	-0.174	
11.830	-0.023	-0.173	
11.835	-0.113	-0.158	
11.840	-0.218	-0.143	
11.845	-0.038	-0.137	
11.850	-0.037	-0.123	
11.855	-0.227	-0.110	
11.860	-0.151	-0.112	
11.865	0.003	-0.117	
11.870	-0.172	-0.113	
11.875	-0.198	-0.114	
11.880	0.017	-0.120	
11.885	-0.075	-0.111	
11.890	-0.182	-0.101	
11.895	0.024	-0.097	
11.900	0.076	-0.079	
11.905	-0.134	-0.054	
11.910	-0.005	-0.041	
11.915	0.223	-0.023	
11.920	-0.049	0.008	
11.925	-0.084	0.024	
11.930	0.189	0.026	
11.935	0.049	0.038	
11.940	-0.089	0.046	
11.945	0.157	0.043	
11.950	0.157	0.051	
11.955	-0.124	0.062	
11.960	0.023	0.052	
11.965	0.238	0.046	
11.970	-0.032	0.055	
11.975	-0.060	0.055	
11.980	0.328	0.053	
11.985	0.145	0.076	
11.990	-0.075	0.099	
11.995	0.146	0.098	
12.000	0.139	0.096	
12.005	-0.111	0.092	
12.010	-0.011	0.068	
12.015	0.151	0.045	
12.020	-0.137	0.032	
12.025	-0.165	0.007	
12.030	0.024	-0.027	
12.035	-0.143	-0.051	
12.040	-0.291	-0.079	
12.045	-0.142	-0.118	
12.050	-0.120	-0.148	
12.055	-0.271	-0.165	
12.060	-0.177	-0.182	
12.065	-0.075	-0.189	
12.070	-0.277	-0.185	
12.075	-0.271	-0.191	
12.080	-0.076	-0.200	
12.085	-0.194	-0.196	
12.090	-0.305	-0.193	
12.095	-0.107	-0.198	
12.100	-0.075	-0.191	
12.105	-0.270	-0.177	
12.110	-0.169	-0.174	
12.115	-0.031	-0.169	
12.120	-0.192	-0.155	
12.125	-0.200	-0.148	
12.130	0.026	-0.143	
12.135	-0.116	-0.127	
12.140	-0.233	-0.116	
12.145	-0.040	-0.117	
12.150	-0.002	-0.111	
12.155	-0.200	-0.099	
12.160	-0.095	-0.097	
12.165	0.079	-0.093	
12.170	-0.145	-0.077	
12.175	-0.172	-0.073	
12.180	0.097	-0.076	
12.185	-0.063	-0.065	
12.190	-0.203	-0.058	
12.195	0.030	-0.064	
12.200	0.024	-0.061	
12.205	-0.194	-0.053	
12.210	-0.087	-0.060	
12.215	0.056	-0.067	
12.220	-0.157	-0.064	
12.225	-0.165	-0.070	
12.230	0.075	-0.079	
12.235	-0.072	-0.073	
12.240	-0.186	-0.068	
12.245	0.065	-0.071	
12.250	0.149	-0.055	
12.255	-0.116	-0.025	
12.260	-0.002	-0.010	
12.265	0.107	-0.001	
12.270	-0.143	0.007	
12.275	-0.136	-0.005	
12.280	0.107	-0.025	
12.285	-0.061	-0.029	
12.290	-0.171	-0.034	
12.295	0.056	-0.046	
12.300	0.029	-0.045	
12.305	-0.178	-0.039	
12.310	-0.067	-0.047	
12.315	0.126	-0.051	
12.320	-0.105	-0.040	
12.325	-0.114	-0.036	
12.330	0.131	-0.037	
12.335	-0.055	-0.026	
12.340	-0.168	-0.023	
12.345	0.058	-0.032	
12.350	0.059	-0.031	
12.355	-0.134	-0.022	
12.360	-0.012	-0.024	
12.365	0.123	-0.022	
12.370	-0.145	-0.013	
12.375	-0.137	-0.020	
12.380	0.110	-0.034	
12.385	-0.038	-0.033	
12.390	-0.160	-0.032	
12.395	0.052	-0.040	
12.400	0.037	-0.037	
12.405	-0.171	-0.031	
12.410	-0.044	-0.039	
12.415	0.148	-0.040	
12.420	-0.114	-0.027	
12.425	-0.102	-0.024	
12.430	0.201	-0.024	
12.435	-0.038	-0.007	
12.440	-0.172	0.000	
12.445	0.041	-0.012	
12.450	0.026	-0.019	
12.455	-0.191	-0.023	
12.460	-0.061	-0.040	
12.465	0.120	-0.050	
12.470	-0.116	-0.043	
12.475	-0.085	-0.040	
12.480	0.250	-0.033	
12.485	0.026	-0.004	
12.490	-0.119	0.020	
12.495	0.114	0.024	
12.500	0.061	0.029	
12.505	-0.172	0.029	
12.510	-0.043	0.009	
12.515	0.102	-0.010	
12.520	-0.133	-0.016	
12.525	-0.145	-0.030	
12.530	0.130	-0.045	
12.535	-0.041	-0.041	
12.540	-0.162	-0.036	
12.545	0.070	-0.041	
12.550	0.078	-0.033	
12.555	-0.145	-0.020	
12.560	-0.026	-0.020	
12.565	0.136	-0.020	
12.570	-0.122	-0.010	
12.575	-0.119	-0.014	
12.580	0.140	-0.023	
12.585	-0.052	-0.019	
12.590	-0.157	-0.019	
12.595	0.114	-0.027	
12.600	0.108	-0.017	
12.605	-0.142	-0.001	
12.610	-0.002	-0.001	
12.615	0.136	-0.001	
12.620	-0.134	0.005	
12.625	-0.117	-0.004	
12.630	0.119	-0.020	
12.635	-0.081	-0.022	
12.640	-0.186	-0.029	
12.645	0.047	-0.046	
12.650	0.029	-0.049	
12.655	-0.172	-0.044	
12.660	-0.017	-0.049	
12.665	0.186	-0.044	
12.670	-0.081	-0.020	
12.675	-0.064	-0.007	
12.680	0.215	0.001	
12.685	-0.008	0.022	
12.690	-0.133	0.031	
12.695	0.122	0.023	
12.700	0.134	0.026	
12.705	-0.104	0.036	
12.710	0.033	0.032	
12.715	0.186	0.031	
12.720	-0.078	0.040	
12.725	-0.026	0.037	
12.730	0.233	0.034	
12.735	-0.003	0.046	
12.740	-0.124	0.048	
12.745	0.134	0.035	
12.750	0.064	0.032	
12.755	-0.177	0.028	
12.760	-0.053	0.005	
12.765	0.096	-0.015	
12.770	-0.139	-0.023	
12.775	-0.137	-0.037	
12.780	0.053	-0.054	
12.785	-0.120	-0.059	
12.790	-0.206	-0.069	
12.795	-0.027	-0.087	
12.800	-0.049	-0.094	
12.805	-0.209	-0.096	
12.810	-0.089	-0.104	
12.815	0.035	-0.106	
12.820	-0.185	-0.096	
12.825	-0.166	-0.097	
12.830	0.088	-0.099	
12.835	0.044	-0.079	
12.840	-0.006	-0.047	
12.845	0.450	-0.000	
12.850	0.558	0.090	
12.855	0.325	0.204	
12.860	0.535	0.304	
12.865	0.604	0.389	
12.870	0.142	0.446	
12.875	0.024	0.433	
12.880	0.195	0.365	
12.885	-0.073	0.280	
12.890	-0.183	0.180	
12.895	-0.002	0.078	
12.900	-0.069	0.001	
12.905	-0.252	-0.055	
12.910	-0.139	-0.105	
12.915	-0.017	-0.135	
12.920	-0.215	-0.143	
12.925	-0.191	-0.150	
12.930	0.008	-0.153	
12.935	-0.143	-0.141	
12.940	-0.235	-0.133	
12.945	-0.024	-0.133	
12.950	-0.049	-0.125	
12.955	-0.215	-0.113	
12.960	-0.079	-0.112	
12.965	0.055	-0.106	
12.970	-0.182	-0.090	
12.975	-0.185	-0.088	
12.980	0.011	-0.096	
12.985	-0.119	-0.095	
12.990	-0.174	-0.096	
12.995	0.065	-0.097	
13.000	0.004	-0.081	
13.005	-0.172	-0.063	
13.010	-0.012	-0.059	
13.015	0.155	-0.048	
13.020	-0.076	-0.023	
13.025	-0.063	-0.010	
13.030	0.145	-0.004	
13.035	-0.073	0.007	
13.040	-0.149	0.004	
13.045	0.155	-0.008	
13.050	0.169	0.002	
13.055	-0.081	0.026	
13.060	0.099	0.038	
13.065	0.232	0.053	
13.070	-0.070	0.073	
13.075	-0.015	0.073	
13.080	0.326	0.070	
13.085	0.091	0.089	
13.090	-0.040	0.104	
13.095	0.242	0.104	
13.100	0.232	0.116	
13.105	-0.032	0.131	
13.110	0.143	0.129	
13.115	0.180	0.124	
13.120	-0.168	0.114	
13.125	-0.154	0.074	
13.130	0.139	0.025	
13.135	-0.098	-0.002	
13.140	-0.224	-0.029	
13.145	-0.064	-0.064	
13.150	-0.124	-0.092	
13.155	-0.310	-0.117	
13.160	-0.210	-0.152	
13.165	-0.119	-0.180	
13.170	-0.285	-0.195	
13.175	-0.256	-0.209	
13.180	-0.093	-0.219	
13.185	-0.221	-0.214	
13.190	-0.288	-0.210	
13.195	-0.098	-0.211	
13.200	-0.122	-0.200	
13.205	-0.284	-0.187	
13.210	-0.133	-0.184	
13.215	-0.021	-0.175	
13.220	-0.233	-0.157	
13.225	-0.203	-0.151	
13.230	0.033	-0.148	
13.235	-0.124	-0.131	
13.240	-0.247	-0.120	
13.245	-0.072	-0.124	
13.250	-0.090	-0.126	
13.255	-0.226	-0.125	
13.260	-0.089	-0.131	
13.265	-0.024	-0.129	
13.270	-0.213	-0.121	
13.275	-0.165	-0.123	
13.280	0.072	-0.123	
13.285	-0.104	-0.106	
13.290	-0.182	-0.093	
13.295	0.050	-0.088	
13.300	-0.021	-0.075	
13.305	-0.200	-0.063	
13.310	-0.060	-0.068	
13.315	0.076	-0.069	
13.320	-0.178	-0.061	
13.325	-0.137	-0.065	
13.330	0.131	-0.070	
13.335	-0.090	-0.058	
13.340	-0.165	-0.051	
13.345	0.058	-0.055	
13.350	-0.011	-0.049	
13.355	-0.182	-0.044	
13.360	-0.046	-0.053	
13.365	0.105	-0.055	
13.370	-0.130	-0.045	
13.375	-0.095	-0.043	
13.380	0.169	-0.041	
13.385	-0.026	-0.022	
13.390	-0.136	-0.010	
13.395	0.108	-0.011	
13.400	0.012	-0.005	
13.405	-0.160	-0.002	
13.410	0.001	-0.015	
13.415	0.146	-0.019	
13.420	-0.134	-0.010	
13.425	-0.110	-0.014	
13.430	0.082	-0.026	
13.435	-0.093	-0.029	
13.440	-0.157	-0.037	
13.445	0.131	-0.047	
13.450	0.032	-0.037	
13.455	-0.194	-0.025	
13.460	-0.034	-0.033	
13.465	0.072	-0.039	
13.470	-0.140	-0.036	
13.475	-0.089	-0.042	
13.480	0.178	-0.044	
13.485	-0.055	-0.026	
13.490	-0.137	-0.016	
13.495	0.155	-0.016	
13.500	0.078	-0.002	
13.505	-0.127	0.014	
13.510	0.073	0.015	
13.515	0.152	0.020	
13.520	-0.157	0.029	
13.525	-0.111	0.016	
13.530	0.157	-0.004	
13.535	-0.049	-0.006	
13.540	-0.153	-0.010	
13.545	0.096	-0.022	
13.550	0.024	-0.021	
13.555	-0.175	-0.018	
13.560	-0.020	-0.029	
13.565	0.099	-0.035	
13.570	-0.171	-0.031	
13.575	-0.131	-0.040	
13.580	0.125	-0.052	
13.585	-0.069	-0.046	
13.590	-0.131	-0.041	
13.595	0.143	-0.039	
13.600	0.040	-0.023	
13.605	-0.143	-0.007	
13.610	0.078	-0.005	
13.615	0.242	0.008	
13.620	-0.069	0.036	
13.625	-0.034	0.046	
13.630	0.227	0.047	
13.635	-0.044	0.056	
13.640	-0.127	0.051	
13.645	0.125	0.031	
13.650	0.052	0.023	
13.655	-0.125	0.020	
13.660	0.072	0.009	
13.665	0.189	0.011	
13.670	-0.089	0.027	
13.675	-0.009	0.030	
13.680	0.213	0.031	
13.685	-0.070	0.041	
13.690	-0.156	0.035	
13.695	0.079	0.012	
13.700	-0.026	-0.003	
13.705	-0.192	-0.017	
13.710	0.012	-0.040	
13.715	0.110	-0.046	
13.720	-0.159	-0.037	
13.725	-0.116	-0.041	
13.730	0.085	-0.049	
13.735	-0.124	-0.048	
13.740	-0.200	-0.055	
13.745	-0.009	-0.072	
13.750	-0.064	-0.081	
13.755	-0.220	-0.087	
13.760	-0.073	-0.100	
13.765	0.012	-0.105	
13.770	-0.159	-0.097	
13.775	0.008	-0.089	
13.780	0.398	-0.057	
13.785	0.255	0.018	
13.790	0.279	0.106	
13.795	0.698	0.200	
13.800	0.564	0.312	
13.805	0.207	0.404	
13.810	0.343	0.435	
13.815	0.293	0.425	
13.820	-0.090	0.380	
13.825	-0.075	0.290	
13.830	0.105	0.186	
13.835	-0.137	0.100	
13.840	-0.203	0.022	
13.845	-0.017	-0.046	
13.850	-0.117	-0.087	
13.855	-0.261	-0.115	
13.860	-0.110	-0.142	
13.865	-0.038	-0.153	
13.870	-0.238	-0.150	
13.875	-0.168	-0.152	
13.880	0.072	-0.148	
13.885	-0.128	-0.126	
13.890	-0.195	-0.109	
13.895	0.020	-0.104	
13.900	-0.058	-0.092	
13.905	-0.210	-0.083	
13.910	-0.032	-0.087	
13.915	0.079	-0.082	
13.920	-0.175	-0.067	
13.925	-0.124	-0.065	
13.930	0.085	-0.068	
13.935	-0.122	-0.060	
13.940	-0.149	-0.059	
13.945	0.119	-0.062	
13.950	0.052	-0.045	
13.955	-0.159	-0.026	
13.960	0.014	-0.023	
13.965	0.090	-0.019	
13.970	-0.146	-0.012	
13.975	-0.063	-0.018	
13.980	0.204	-0.021	
13.985	-0.023	-0.004	
13.990	-0.075	0.009	
13.995	0.247	0.018	
14.000	0.148	0.044	
14.005	-0.072	0.071	
14.010	0.184	0.080	
14.015	0.290	0.097	
14.020	-0.017	0.121	
14.025	0.101	0.128	
14.030	0.338	0.131	
14.035	0.043	0.147	
14.040	-0.044	0.145	
14.045	0.270	0.127	
14.050	0.142	0.125	
14.055	-0.140	0.119	
14.060	0.011	0.089	
14.065	0.044	0.054	
14.070	-0.212	0.022	
14.075	-0.183	-0.024	
14.080	-0.029	-0.070	
14.085	-0.218	-0.101	
14.090	-0.273	-0.132	
14.095	-0.105	-0.163	
14.100	-0.182	-0.178	
14.105	-0.325	-0.190	
14.110	-0.175	-0.207	
14.115	-0.110	-0.213	
14.120	-0.281	-0.208	
14.125	-0.207	-0.208	
14.130	-0.034	-0.203	
14.135	-0.203	-0.185	
14.140	-0.255	-0.174	
14.145	-0.021	-0.171	
14.150	-0.110	-0.156	
14.155	-0.258	-0.143	
14.160	-0.110	-0.144	
14.165	-0.066	-0.143	
14.170	-0.255	-0.139	
14.175	-0.177	-0.146	
14.180	0.040	-0.149	
14.185	-0.162	-0.135	
14.190	-0.217	-0.126	
14.195	-0.003	-0.126	
14.200	-0.085	-0.117	
14.205	-0.218	-0.109	
14.210	-0.040	-0.111	
14.215	0.070	-0.102	
14.220	-0.157	-0.081	
14.225	-0.078	-0.071	
14.230	0.152	-0.060	
14.235	-0.102	-0.038	
14.240	-0.136	-0.029	
14.245	0.110	-0.031	
14.250	-0.076	-0.026	
14.255	-0.212	-0.031	
14.260	-0.046	-0.052	
14.265	0.033	-0.066	
14.270	-0.182	-0.068	
14.275	-0.145	-0.078	
14.280	0.004	-0.090	
14.285	-0.160	-0.093	
14.290	-0.162	-0.100	
14.295	0.090	-0.102	
14.300	-0.049	-0.086	
14.305	-0.192	-0.072	
14.310	-0.020	-0.072	
14.315	0.061	-0.067	
14.320	-0.153	-0.054	
14.325	-0.058	-0.052	
14.330	0.175	-0.046	
14.335	-0.082	-0.024	
14.340	-0.124	-0.015	
14.345	0.133	-0.016	
14.350	-0.011	-0.008	
14.355	-0.163	-0.005	
14.360	0.021	-0.017	
14.365	0.053	-0.023	
14.370	-0.177	-0.024	
14.375	-0.102	-0.039	
14.380	0.096	-0.052	
14.385	-0.096	-0.049	
14.390	-0.127	-0.049	
14.395	0.166	-0.048	
14.400	0.024	-0.028	
14.405	-0.172	-0.012	
14.410	0.015	-0.015	
14.415	0.061	-0.018	
14.420	-0.175	-0.018	
14.425	-0.089	-0.032	
14.430	0.157	-0.042	
14.435	-0.072	-0.032	
14.440	-0.099	-0.025	
14.445	0.145	-0.023	
14.450	-0.018	-0.010	
14.455	-0.172	-0.004	
14.460	0.030	-0.016	
14.465	0.139	-0.018	
14.470	-0.107	-0.006	
14.475	-0.026	-0.004	
14.480	0.120	-0.004	
14.485	-0.142	0.000	
14.490	-0.163	-0.013	
14.495	0.108	-0.033	
14.500	-0.009	-0.035	
14.505	-0.149	-0.033	
14.510	0.050	-0.037	
14.515	0.088	-0.031	
14.520	-0.153	-0.018	
14.525	-0.038	-0.021	
14.530	0.180	-0.020	
14.535	-0.087	-0.006	
14.540	-0.140	-0.003	
14.545	0.102	-0.014	
14.550	-0.046	-0.016	
14.555	-0.177	-0.021	
14.560	0.035	-0.037	
14.565	0.110	-0.038	
14.570	-0.122	-0.025	
14.575	-0.024	-0.022	
14.580	0.165	-0.016	
14.585	-0.107	-0.001	
14.590	-0.128	-0.002	
14.595	0.157	-0.011	
14.600	0.021	-0.004	
14.605	-0.140	0.003	
14.610	0.065	-0.003	
14.615	0.065	-0.003	
14.620	-0.154	-0.000	
14.625	-0.035	-0.012	
14.630	0.209	-0.016	
14.635	-0.089	-0.002	
14.640	-0.143	0.001	
14.645	0.105	-0.011	
14.650	0.008	-0.011	
14.655	-0.134	-0.010	
14.660	0.105	-0.014	
14.665	0.126	-0.005	
14.670	-0.149	0.010	
14.675	-0.052	0.006	
14.680	0.183	-0.001	
14.685	-0.046	0.008	
14.690	-0.069	0.012	
14.695	0.239	0.015	
14.700	0.078	0.036	
14.705	-0.098	0.053	
14.710	0.149	0.053	
14.715	0.148	0.060	
14.720	-0.125	0.067	
14.725	0.037	0.055	
14.730	0.213	0.046	
14.735	-0.111	0.050	
14.740	-0.156	0.035	
14.745	0.062	0.004	
14.750	-0.072	-0.016	
14.755	-0.212	-0.037	
14.760	-0.052	-0.065	
14.765	-0.040	-0.084	
14.770	-0.213	-0.093	
14.775	-0.105	-0.107	
14.780	0.078	-0.110	
14.785	-0.156	-0.096	
14.790	-0.153	-0.089	
14.795	0.116	-0.085	
14.800	-0.061	-0.067	
14.805	-0.206	-0.055	
14.810	-0.017	-0.062	
14.815	0.105	-0.060	
14.820	-0.017	-0.040	
14.825	0.271	-0.007	
14.830	0.620	0.064	
14.835	0.375	0.174	
14.840	0.372	0.276	
14.845	0.633	0.356	
14.850	0.352	0.422	
14.855	-0.018	0.437	
14.860	0.203	0.388	
14.865	0.160	0.317	
14.870	-0.156	0.241	
14.875	-0.095	0.148	
14.880	0.035	0.060	
14.885	-0.183	-0.004	
14.890	-0.192	-0.058	
14.895	0.029	-0.099	
14.900	-0.153	-0.114	
14.905	-0.277	-0.126	
14.910	-0.105	-0.146	
14.915	-0.098	-0.156	
14.920	-0.250	-0.158	
14.925	-0.145	-0.164	
14.930	0.041	-0.159	
14.935	-0.171	-0.139	
14.940	-0.171	-0.125	
14.945	0.029	-0.117	
14.950	-0.128	-0.103	
14.955	-0.246	-0.099	
14.960	-0.056	-0.110	
14.965	-0.005	-0.112	
14.970	-0.191	-0.104	
14.975	-0.061	-0.101	
14.980	0.110	-0.091	
14.985	-0.154	-0.069	
14.990	-0.146	-0.061	
14.995	0.148	-0.060	
15.000	-0.043	-0.043	
15.005	-0.160	-0.032	
15.010	0.084	-0.033	
15.015	0.096	-0.023	
15.020	-0.137	-0.007	
15.025	0.001	-0.006	
15.030	0.177	-0.003	
15.035	-0.084	0.012	
15.040	-0.073	0.014	
15.045	0.230	0.012	
15.050	0.078	0.031	
15.055	-0.085	0.048	
15.060	0.206	0.053	
15.065	0.261	0.072	
15.070	-0.020	0.101	
15.075	0.142	0.114	
15.080	0.329	0.126	
15.085	-0.008	0.145	
15.090	-0.047	0.140	
15.095	0.226	0.118	
15.100	-0.015	0.103	
15.105	-0.165	0.078	
15.110	0.065	0.038	
15.115	0.035	0.012	
15.120	-0.220	-0.007	
15.125	-0.153	-0.041	
15.130	-0.044	-0.076	
15.135	-0.258	-0.103	
15.140	-0.281	-0.135	
15.145	-0.125	-0.170	
15.150	-0.229	-0.191	
15.155	-0.305	-0.207	
15.160	-0.128	-0.221	
15.165	-0.128	-0.219	
15.170	-0.279	-0.208	
15.175	-0.178	-0.204	
15.180	-0.046	-0.196	
15.185	-0.215	-0.178	
15.190	-0.206	-0.168	
15.195	0.023	-0.160	
15.200	-0.130	-0.140	
15.205	-0.242	-0.126	
15.210	-0.066	-0.128	
15.215	-0.066	-0.125	
15.220	-0.261	-0.122	
15.225	-0.156	-0.132	
15.230	-0.023	-0.140	
15.235	-0.207	-0.137	
15.240	-0.204	-0.140	
15.245	0.027	-0.143	
15.250	-0.114	-0.130	
15.255	-0.210	-0.119	
15.260	0.017	-0.115	
15.265	-0.002	-0.100	
15.270	-0.195	-0.083	
15.275	-0.063	-0.080	
15.280	0.152	-0.072	
15.285	-0.104	-0.048	
15.290	-0.076	-0.033	
15.295	0.183	-0.024	
15.300	-0.079	-0.005	
15.305	-0.215	-0.003	
15.310	-0.024	-0.027	
15.315	-0.005	-0.046	
15.320	-0.209	-0.058	
15.325	-0.082	-0.076	
15.330	0.093	-0.084	
15.335	-0.140	-0.074	
15.340	-0.124	-0.070	
15.345	0.139	-0.067	
15.350	-0.067	-0.049	
15.355	-0.180	-0.039	
15.360	0.053	-0.044	
15.365	0.055	-0.039	
15.370	-0.127	-0.028	
15.375	0.046	-0.024	
15.380	0.184	-0.011	
15.385	-0.119	0.011	
15.390	-0.111	0.012	
15.395	0.126	0.001	
15.400	-0.060	-0.001	
15.405	-0.145	-0.008	
15.410	0.070	-0.023	
15.415	0.008	-0.026	
15.420	-0.215	-0.029	
15.425	-0.072	-0.047	
15.430	0.105	-0.060	
15.435	-0.146	-0.055	
15.440	-0.133	-0.057	
15.445	0.117	-0.061	
15.450	-0.046	-0.050	
15.455	-0.149	-0.040	
15.460	0.088	-0.040	
15.465	0.070	-0.028	
15.470	-0.163	-0.014	
15.475	-0.018	-0.017	
15.480	0.175	-0.017	
15.485	-0.095	-0.002	
15.490	-0.095	0.000	
15.495	0.157	-0.005	
15.500	-0.056	0.001	
15.505	-0.169	-0.002	
15.510	0.105	-0.016	
15.515	0.082	-0.015	
15.520	-0.154	-0.006	
15.525	-0.014	-0.012	
15.530	0.120	-0.015	
15.535	-0.105	-0.008	
15.540	-0.050	-0.010	
15.545	0.161	-0.011	
15.550	-0.110	-0.002	
15.555	-0.194	-0.009	
15.560	0.072	-0.030	
15.565	0.061	-0.035	
15.570	-0.160	-0.029	
15.575	-0.035	-0.034	
15.580	0.119	-0.036	
15.585	-0.131	-0.027	
15.590	-0.101	-0.028	
15.595	0.178	-0.031	
15.600	-0.026	-0.016	
15.605	-0.134	-0.006	
15.610	0.113	-0.009	
15.615	0.052	-0.001	
15.620	-0.157	0.005	
15.625	-0.012	-0.005	
15.630	0.169	-0.010	
15.635	-0.105	-0.000	
15.640	-0.066	-0.000	
15.645	0.168	-0.004	
15.650	-0.073	0.005	
15.655	-0.165	0.001	
15.660	0.085	-0.015	
15.665	0.029	-0.019	
15.670	-0.195	-0.020	
15.675	-0.073	-0.037	
15.680	0.104	-0.049	
15.685	-0.127	-0.046	
15.690	-0.098	-0.047	
15.695	0.168	-0.046	
15.700	-0.047	-0.028	
15.705	-0.145	-0.018	
15.710	0.126	-0.019	
15.715	0.070	-0.008	
15.720	-0.162	0.004	
15.725	-0.003	-0.003	
15.730	0.146	-0.007	
15.735	-0.137	-0.000	
15.740	-0.120	-0.009	
15.745	0.151	-0.022	
15.750	-0.029	-0.017	
15.755	-0.154	-0.014	
15.760	0.078	-0.022	
15.765	0.008	-0.022	
15.770	-0.198	-0.022	
15.775	-0.053	-0.039	
15.780	0.130	-0.048	
15.785	-0.104	-0.039	
15.790	-0.069	-0.034	
15.795	0.223	-0.026	
15.800	0.017	0.001	
15.805	-0.093	0.021	
15.810	0.190	0.028	
15.815	0.110	0.045	
15.820	-0.122	0.058	
15.825	0.105	0.053	
15.830	0.279	0.057	
15.835	-0.053	0.077	
15.840	-0.032	0.079	
15.845	0.258	0.072	
15.850	-0.011	0.077	
15.855	-0.153	0.069	
15.860	0.050	0.040	
15.865	-0.012	0.016	
15.870	-0.200	-0.007	
15.875	-0.037	-0.038	
15.880	0.061	-0.056	
15.885	-0.197	-0.059	
15.890	-0.186	-0.074	
15.895	0.037	-0.092	
15.900	-0.120	-0.095	
15.905	-0.206	-0.098	
15.910	0.008	-0.105	
15.915	-0.037	-0.100	
15.920	-0.210	-0.092	
15.925	-0.063	-0.095	
15.930	0.014	-0.094	
15.935	-0.188	-0.086	
15.940	-0.070	-0.086	
15.945	0.334	-0.070	
15.950	0.276	-0.009	
15.955	0.311	0.078	
15.960	0.687	0.179	
15.965	0.610	0.302	
15.970	0.248	0.406	
15.975	0.348	0.449	
15.980	0.376	0.449	
15.985	-0.027	0.415	
15.990	-0.046	0.335	
15.995	0.149	0.235	
16.000	-0.110	0.149	
16.005	-0.204	0.067	
16.010	-0.011	-0.011	
16.015	-0.058	-0.060	
16.020	-0.235	-0.090	
16.025	-0.136	-0.118	
16.030	-0.067	-0.137	
16.035	-0.242	-0.145	
16.040	-0.168	-0.155	
16.045	0.032	-0.157	
16.050	-0.178	-0.141	
16.055	-0.264	-0.135	
16.060	-0.076	-0.143	
16.065	-0.105	-0.145	
16.070	-0.258	-0.144	
16.075	-0.113	-0.151	
16.080	0.012	-0.148	
16.085	-0.198	-0.133	
16.090	-0.140	-0.125	
16.095	0.113	-0.115	
16.100	-0.111	-0.090	
16.105	-0.191	-0.075	
16.110	0.040	-0.075	
16.115	-0.011	-0.066	
16.120	-0.192	-0.058	
16.125	-0.005	-0.062	
16.130	0.151	-0.054	
16.135	-0.122	-0.033	
16.140	-0.079	-0.024	
16.145	0.223	-0.018	
16.150	0.032	0.007	
16.155	-0.102	0.026	
16.160	0.169	0.031	
16.165	0.139	0.045	
16.170	-0.084	0.060	
16.175	0.151	0.062	
16.180	0.312	0.076	
16.185	-0.041	0.103	
16.190	-0.015	0.107	
16.195	0.250	0.097	
16.200	0.038	0.099	
16.205	-0.049	0.094	
16.210	0.273	0.084	
16.215	0.194	0.096	
16.220	-0.096	0.110	
16.225	0.072	0.100	
16.230	0.130	0.085	
16.235	-0.140	0.070	
16.240	-0.137	0.037	
16.245	0.032	-0.004	
16.250	-0.163	-0.034	
16.255	-0.246	-0.068	
16.260	-0.073	-0.105	
16.265	-0.145	-0.129	
16.270	-0.297	-0.147	
16.275	-0.171	-0.171	
16.280	-0.111	-0.186	
16.285	-0.296	-0.191	
16.290	-0.250	-0.202	
16.295	-0.082	-0.211	
16.300	-0.213	-0.205	
16.305	-0.277	-0.201	
16.310	-0.090	-0.201	
16.315	-0.145	-0.192	
16.320	-0.282	-0.183	
16.325	-0.130	-0.183	
16.330	-0.038	-0.176	
16.335	-0.230	-0.160	
16.340	-0.168	-0.154	
16.345	0.070	-0.145	
16.350	-0.130	-0.121	
16.355	-0.210	-0.106	
16.360	-0.024	-0.105	
16.365	-0.081	-0.101	
16.370	-0.215	-0.099	
16.375	-0.069	-0.106	
16.380	0.020	-0.106	
16.385	-0.185	-0.096	
16.390	-0.119	-0.095	
16.395	0.105	-0.091	
16.400	-0.117	-0.074	
16.405	-0.206	-0.067	
16.410	-0.003	-0.076	
16.415	-0.066	-0.079	
16.420	-0.201	-0.082	
16.425	-0.031	-0.091	
16.430	0.097	-0.086	
16.435	-0.140	-0.067	
16.440	-0.104	-0.058	
16.445	0.125	-0.054	
16.450	-0.096	-0.039	
16.455	-0.149	-0.035	
16.460	0.128	-0.039	
16.465	0.023	-0.027	
16.470	-0.165	-0.016	
16.475	0.049	-0.020	
16.480	0.114	-0.016	
16.485	-0.174	-0.006	
16.490	-0.087	-0.015	
16.495	0.143	-0.026	
16.500	-0.108	-0.022	
16.505	-0.172	-0.028	
16.510	0.078	-0.043	
16.515	-0.020	-0.044	
16.520	-0.198	-0.044	
16.525	-0.035	-0.056	
16.530	0.085	-0.061	
16.535	-0.148	-0.052	
16.540	-0.082	-0.052	
16.545	0.169	-0.049	
16.550	-0.038	-0.028	
16.555	-0.110	-0.014	
16.560	0.158	-0.009	
16.565	0.026	0.006	
16.570	-0.153	0.015	
16.575	0.059	0.006	
16.580	0.201	0.009	
16.585	-0.131	0.024	
16.590	-0.119	0.018	
16.595	0.096	-0.000	
16.600	-0.122	-0.012	
16.605	-0.204	-0.031	
16.610	0.029	-0.058	
16.615	-0.029	-0.069	
16.620	-0.185	-0.071	
16.625	-0.008	-0.078	
16.630	0.097	-0.072	
16.635	-0.136	-0.053	
16.640	-0.061	-0.045	
16.645	0.200	-0.035	
16.650	-0.049	-0.011	
16.655	-0.114	0.003	
16.660	0.175	0.004	
16.665	0.046	0.017	
16.670	-0.159	0.025	
16.675	0.024	0.013	
16.680	0.110	0.005	
16.685	-0.142	0.005	
16.690	-0.070	-0.008	
16.695	0.181	-0.017	
16.700	-0.060	-0.008	
16.705	-0.139	-0.005	
16.710	0.078	-0.015	
16.715	-0.043	-0.018	
16.720	-0.195	-0.026	
16.725	-0.017	-0.046	
16.730	0.091	-0.053	
16.735	-0.149	-0.046	
16.740	-0.090	-0.048	
16.745	0.172	-0.047	
16.750	-0.072	-0.030	
16.755	-0.139	-0.021	
16.760	0.126	-0.023	
16.765	0.049	-0.012	
16.770	-0.145	-0.001	
16.775	0.020	-0.005	
16.780	0.084	-0.008	
16.785	-0.149	-0.006	
16.790	-0.061	-0.016	
16.795	0.219	-0.021	
16.800	-0.027	-0.003	
16.805	-0.101	0.009	
16.810	0.081	0.007	
16.815	-0.070	0.004	
16.820	-0.206	-0.011	
16.825	-0.005	-0.038	
16.830	0.082	-0.051	
16.835	-0.140	-0.047	
16.840	-0.058	-0.048	
16.845	0.215	-0.042	
16.850	-0.012	-0.014	
16.855	-0.050	0.008	
16.860	0.285	0.026	
16.865	0.133	0.060	
16.870	-0.104	0.086	
16.875	0.125	0.085	
16.880	0.175	0.084	
16.885	-0.105	0.085	
16.890	-0.008	0.068	
16.895	0.161	0.049	
16.900	-0.128	0.039	
16.905	-0.172	0.015	
16.910	-0.012	-0.022	
16.915	-0.076	-0.049	
16.920	-0.215	-0.071	
16.925	-0.052	-0.094	
16.930	0.041	-0.101	
16.935	-0.191	-0.093	
16.940	-0.116	-0.093	
16.945	0.131	-0.089	
16.950	-0.119	-0.070	
16.955	-0.178	-0.060	
16.960	0.047	-0.064	
16.965	-0.087	-0.062	
16.970	-0.209	-0.065	
16.975	0.079	-0.074	
16.980	0.314	-0.053	
16.985	0.122	0.006	
16.990	0.360	0.076	
16.995	0.733	0.169	
17.000	0.448	0.288	
17.005	0.274	0.382	
17.010	0.466	0.425	
17.015	0.197	0.432	
17.020	-0.087	0.392	
17.025	0.116	0.306	
17.030	0.163	0.222	
17.035	-0.151	0.153	
17.040	-0.143	0.077	
17.045	-0.014	0.005	
17.050	-0.200	-0.048	
17.055	-0.255	-0.096	
17.060	-0.044	-0.137	
17.065	-0.110	-0.153	
17.070	-0.252	-0.156	
17.075	-0.113	-0.162	
17.080	-0.067	-0.161	
17.085	-0.242	-0.153	
17.090	-0.143	-0.153	
17.095	0.056	-0.146	
17.100	-0.160	-0.125	
17.105	-0.207	-0.113	
17.110	0.040	-0.111	
17.115	-0.046	-0.098	
17.120	-0.204	-0.085	
17.125	-0.053	-0.086	
17.130	0.023	-0.084	
17.135	-0.201	-0.078	
17.140	-0.113	-0.083	
17.145	0.151	-0.083	
17.150	-0.056	-0.061	
17.155	-0.136	-0.044	
17.160	0.075	-0.039	
17.165	-0.023	-0.030	
17.170	-0.166	-0.026	
17.175	0.053	-0.033	
17.180	0.136	-0.027	
17.185	-0.119	-0.010	
17.190	0.023	-0.003	
17.195	0.312	0.012	
17.200	0.044	0.049	
17.205	-0.060	0.074	
17.210	0.251	0.081	
17.215	0.148	0.096	
17.220	-0.072	0.108	
17.225	0.172	0.102	
17.230	0.194	0.102	
17.235	-0.105	0.104	
17.240	-0.012	0.084	
17.245	0.218	0.063	
17.250	-0.044	0.059	
17.255	-0.069	0.048	
17.260	0.230	0.037	
17.265	0.026	0.043	
17.270	-0.182	0.043	
17.275	-0.031	0.018	
17.280	-0.005	-0.009	
17.285	-0.221	-0.033	
17.290	-0.151	-0.066	
17.295	-0.046	-0.096	
17.300	-0.247	-0.116	
17.305	-0.274	-0.142	
17.310	-0.067	-0.168	
17.315	-0.157	-0.176	
17.320	-0.274	-0.178	
17.325	-0.104	-0.183	
17.330	-0.090	-0.178	
17.335	-0.293	-0.170	
17.340	-0.230	-0.176	
17.345	-0.093	-0.186	
17.350	-0.249	-0.187	
17.355	-0.267	-0.192	
17.360	-0.049	-0.198	
17.365	-0.140	-0.188	
17.370	-0.265	-0.175	
17.375	-0.098	-0.172	
17.380	-0.040	-0.162	
17.385	-0.232	-0.146	
17.390	-0.142	-0.141	
17.395	0.078	-0.133	
17.400	-0.130	-0.109	
17.405	-0.136	-0.092	
17.410	0.091	-0.081	
17.415	-0.070	-0.062	
17.420	-0.210	-0.053	
17.425	-0.027	-0.063	
17.430	-0.027	-0.069	
17.435	-0.207	-0.073	
17.440	-0.102	-0.087	
17.445	0.082	-0.093	
17.450	-0.156	-0.083	
17.455	-0.185	-0.082	
17.460	0.068	-0.087	
17.465	-0.058	-0.079	
17.470	-0.192	-0.071	
17.475	0.027	-0.073	
17.480	0.059	-0.064	
17.485	-0.162	-0.049	
17.490	-0.018	-0.045	
17.495	0.210	-0.035	
17.500	-0.124	-0.010	
17.505	-0.165	-0.006	
17.510	0.105	-0.018	
17.515	-0.052	-0.021	
17.520	-0.197	-0.028	
17.525	0.015	-0.046	
17.530	0.065	-0.051	
17.535	-0.166	-0.045	
17.540	-0.064	-0.049	
17.545	0.195	-0.046	
17.550	-0.050	-0.024	
17.555	-0.114	-0.009	
17.560	0.139	-0.007	
17.565	-0.032	0.002	
17.570	-0.172	0.001	
17.575	0.015	-0.016	
17.580	0.047	-0.026	
17.585	-0.163	-0.029	
17.590	-0.067	-0.040	
17.595	0.136	-0.046	
17.600	-0.101	-0.036	
17.605	-0.140	-0.034	
17.610	0.056	-0.041	
17.615	-0.093	-0.043	
17.620	-0.204	-0.051	
17.625	0.012	-0.069	
17.630	0.041	-0.071	
17.635	-0.168	-0.062	
17.640	-0.056	-0.063	
17.645	0.183	-0.056	
17.650	-0.069	-0.031	
17.655	-0.110	-0.016	
17.660	0.160	-0.012	
17.665	0.068	0.005	
17.670	-0.101	0.022	
17.675	0.079	0.024	
17.680	0.096	0.027	
17.685	-0.116	0.031	
17.690	0.041	0.023	
17.695	0.242	0.024	
17.700	-0.064	0.042	
17.705	-0.096	0.043	
17.710	0.152	0.031	
17.715	-0.021	0.028	
17.720	-0.159	0.019	
17.725	0.073	-0.001	
17.730	0.119	-0.006	
17.735	-0.114	0.002	
17.740	0.017	0.001	
17.745	0.219	0.007	
17.750	-0.073	0.026	
17.755	-0.116	0.029	
17.760	0.175	0.019	
17.765	-0.014	0.021	
17.770	-0.177	0.016	
17.775	0.018	-0.005	
17.780	0.068	-0.018	
17.785	-0.154	-0.021	
17.790	-0.061	-0.032	
17.795	0.111	-0.040	
17.800	-0.133	-0.035	
17.805	-0.142	-0.039	
17.810	0.085	-0.050	
17.815	-0.076	-0.048	
17.820	-0.224	-0.052	
17.825	-0.078	-0.072	
17.830	-0.053	-0.088	
17.835	-0.192	-0.098	
17.840	0.029	-0.103	
17.845	0.401	-0.074	
17.850	0.236	0.003	
17.855	0.323	0.095	
17.860	0.651	0.194	
17.865	0.434	0.302	
17.870	0.142	0.376	
17.875	0.280	0.389	
17.880	0.180	0.364	
17.885	-0.131	0.308	
17.890	-0.053	0.218	
17.895	0.117	0.127	
17.900	-0.136	0.062	
17.905	-0.159	0.003	
17.910	0.053	-0.044	
17.915	-0.128	-0.068	
17.920	-0.250	-0.088	
17.925	-0.076	-0.114	
17.930	-0.056	-0.127	
17.935	-0.250	-0.130	
17.940	-0.133	-0.140	
17.945	-0.006	-0.142	
17.950	-0.200	-0.134	
17.955	-0.203	-0.133	
17.960	0.017	-0.135	
17.965	-0.081	-0.123	
17.970	-0.194	-0.110	
17.975	0.008	-0.104	
17.980	0.040	-0.089	
17.985	-0.169	-0.069	
17.990	-0.046	-0.062	
17.995	0.168	-0.052	
18.000	-0.113	-0.029	
18.005	-0.143	-0.022	
18.010	0.105	-0.028	
18.015	-0.044	-0.024	
18.020	-0.160	-0.025	
18.025	0.111	-0.032	
18.030	0.136	-0.021	
18.035	-0.096	0.002	
18.040	0.029	0.011	
18.045	0.229	0.023	
18.050	-0.058	0.044	
18.055	-0.096	0.047	
18.060	0.178	0.036	
18.065	0.047	0.039	
18.070	-0.085	0.041	
18.075	0.204	0.039	
18.080	0.262	0.057	
18.085	-0.034	0.088	
18.090	0.108	0.101	
18.095	0.303	0.111	
18.100	0.003	0.129	
18.105	0.001	0.128	
18.110	0.283	0.117	
18.115	0.067	0.120	
18.120	-0.116	0.113	
18.125	0.105	0.086	
18.130	0.033	0.063	
18.135	-0.203	0.038	
18.140	-0.117	-0.003	
18.145	-0.032	-0.045	
18.150	-0.236	-0.076	
18.155	-0.233	-0.112	
18.160	-0.043	-0.143	
18.165	-0.191	-0.155	
18.170	-0.299	-0.166	
18.175	-0.149	-0.184	
18.180	-0.137	-0.193	
18.185	-0.299	-0.195	
18.190	-0.185	-0.202	
18.195	-0.050	-0.202	
18.200	-0.230	-0.188	
18.205	-0.229	-0.181	
18.210	-0.044	-0.178	
18.215	-0.169	-0.166	
18.220	-0.264	-0.159	
18.225	-0.078	-0.162	
18.230	-0.067	-0.156	
18.235	-0.232	-0.145	
18.240	-0.116	-0.143	
18.245	0.008	-0.136	
18.250	-0.203	-0.122	
18.255	-0.194	-0.120	
18.260	0.055	-0.121	
18.265	-0.114	-0.109	
18.270	-0.220	-0.101	
18.275	-0.032	-0.105	
18.280	-0.037	-0.103	
18.285	-0.198	-0.097	
18.290	-0.052	-0.098	
18.295	0.131	-0.089	
18.300	-0.131	-0.064	
18.305	-0.114	-0.051	
18.310	0.140	-0.046	
18.315	-0.081	-0.031	
18.320	-0.218	-0.029	
18.325	-0.049	-0.048	
18.330	-0.044	-0.066	
18.335	-0.180	-0.077	
18.340	-0.026	-0.088	
18.345	0.140	-0.081	
18.350	-0.134	-0.058	
18.355	-0.127	-0.047	
18.360	0.146	-0.044	
18.365	0.015	-0.026	
18.370	-0.130	-0.011	
18.375	0.064	-0.009	
18.380	0.026	-0.006	
18.385	-0.180	-0.006	
18.390	-0.075	-0.024	
18.395	0.085	-0.039	
18.400	-0.139	-0.042	
18.405	-0.105	-0.049	
18.410	0.186	-0.051	
18.415	-0.038	-0.032	
18.420	-0.186	-0.020	
18.425	0.033	-0.028	
18.430	0.021	-0.031	
18.435	-0.171	-0.032	
18.440	0.000	-0.041	
18.445	0.180	-0.037	
18.450	-0.125	-0.018	
18.455	-0.136	-0.014	
18.460	0.123	-0.023	
18.465	-0.041	-0.019	
18.470	-0.160	-0.020	
18.475	0.073	-0.030	
18.480	0.050	-0.027	
18.485	-0.156	-0.020	
18.490	-0.008	-0.025	
18.495	0.181	-0.023	
18.500	-0.093	-0.005	
18.505	-0.099	-0.000	
18.510	0.155	-0.004	
18.515	-0.038	0.003	
18.520	-0.151	0.002	
18.525	0.094	-0.010	
18.530	0.070	-0.009	
18.535	-0.142	-0.002	
18.540	0.021	-0.008	
18.545	0.221	-0.003	
18.550	-0.047	0.019	
18.555	-0.049	0.030	
18.560	0.256	0.035	
18.565	0.061	0.055	
18.570	-0.087	0.068	
18.575	0.219	0.067	
18.580	0.212	0.080	
18.585	-0.102	0.097	
18.590	-0.031	0.086	
18.595	0.117	0.063	
18.600	-0.119	0.044	
18.605	-0.113	0.015	
18.610	0.084	-0.013	
18.615	-0.102	-0.027	
18.620	-0.223	-0.045	
18.625	-0.049	-0.073	
18.630	-0.084	-0.092	
18.635	-0.235	-0.105	
18.640	-0.102	-0.122	
18.645	0.043	-0.127	
18.650	-0.166	-0.114	
18.655	-0.154	-0.107	
18.660	0.065	-0.103	
18.665	-0.093	-0.087	
18.670	-0.127	-0.075	
18.675	0.273	-0.058	
18.680	0.386	-0.002	
18.685	0.238	0.085	
18.690	0.619	0.180	
18.695	0.759	0.297	
18.700	0.322	0.413	
18.705	0.203	0.468	
18.710	0.335	0.458	
18.715	0.008	0.409	
18.720	-0.148	0.319	
18.725	0.050	0.204	
18.730	-0.020	0.108	
18.735	-0.230	0.030	
18.740	-0.122	-0.042	
18.745	-0.018	-0.092	
18.750	-0.207	-0.116	
18.755	-0.188	-0.136	
18.760	0.029	-0.146	
18.765	-0.128	-0.136	
18.770	-0.229	-0.127	
18.775	-0.053	-0.128	
18.780	-0.067	-0.124	
18.785	-0.220	-0.118	
18.790	-0.087	-0.120	
18.795	0.059	-0.115	
18.800	-0.162	-0.097	
18.805	-0.130	-0.088	
18.810	0.110	-0.082	
18.815	-0.111	-0.065	
18.820	-0.195	-0.059	
18.825	0.004	-0.068	
18.830	-0.009	-0.069	
18.835	-0.182	-0.066	
18.840	-0.041	-0.071	
18.845	0.099	-0.068	
18.850	-0.153	-0.054	
18.855	-0.108	-0.052	
18.860	0.190	-0.049	
18.865	-0.026	-0.027	
18.870	-0.128	-0.011	
18.875	0.204	-0.005	
18.880	0.190	0.021	
18.885	-0.104	0.052	
18.890	0.046	0.059	
18.895	0.210	0.061	
18.900	-0.012	0.071	
18.905	0.055	0.074	
18.910	0.332	0.082	
18.915	0.078	0.107	
18.920	-0.056	0.120	
18.925	0.238	0.113	
18.930	0.197	0.118	
18.935	-0.061	0.124	
18.940	0.128	0.114	
18.945	0.253	0.109	
18.950	-0.082	0.111	
18.955	-0.087	0.092	
18.960	0.097	0.058	
18.965	-0.130	0.030	
18.970	-0.220	-0.007	
18.975	-0.049	-0.052	
18.980	-0.111	-0.085	
18.985	-0.273	-0.110	
18.990	-0.166	-0.140	
18.995	-0.102	-0.162	
19.000	-0.270	-0.172	
19.005	-0.233	-0.186	
19.010	-0.046	-0.194	
19.015	-0.175	-0.186	
19.020	-0.253	-0.177	
19.025	-0.072	-0.175	
19.030	-0.110	-0.165	
19.035	-0.284	-0.156	
19.040	-0.169	-0.162	
19.045	-0.066	-0.167	
19.050	-0.215	-0.162	
19.055	-0.168	-0.160	
19.060	0.024	-0.154	
19.065	-0.156	-0.136	
19.070	-0.253	-0.126	
19.075	-0.067	-0.132	
19.080	-0.087	-0.132	
19.085	-0.242	-0.130	
19.090	-0.107	-0.137	
19.095	0.020	-0.135	
19.100	-0.178	-0.120	
19.105	-0.146	-0.113	
19.110	0.091	-0.106	
19.115	-0.095	-0.086	
19.120	-0.209	-0.074	
19.125	-0.020	-0.079	
19.130	-0.046	-0.081	
19.135	-0.221	-0.082	
19.140	-0.081	-0.094	
19.145	0.093	-0.095	
19.150	-0.140	-0.080	
19.155	-0.128	-0.073	
19.160	0.105	-0.069	
19.165	-0.060	-0.053	
19.170	-0.153	-0.044	
19.175	0.062	-0.045	
19.180	-0.014	-0.039	
19.185	-0.207	-0.037	
19.190	-0.050	-0.051	
19.195	0.079	-0.059	
19.200	-0.146	-0.054	
19.205	-0.108	-0.056	
19.210	0.139	-0.058	
19.215	-0.076	-0.043	
19.220	-0.137	-0.035	
19.225	0.128	-0.035	
19.230	0.037	-0.021	
19.235	-0.178	-0.010	
19.240	-0.044	-0.019	
19.245	0.070	-0.029	
19.250	-0.146	-0.031	
19.255	-0.056	-0.039	
19.260	0.206	-0.038	
19.265	-0.079	-0.018	
19.270	-0.182	-0.011	
19.275	0.047	-0.024	
19.280	-0.011	-0.030	
19.285	-0.169	-0.034	
19.290	0.004	-0.046	
19.295	0.114	-0.045	
19.300	-0.143	-0.033	
19.305	-0.108	-0.033	
19.310	0.126	-0.038	
19.315	-0.070	-0.030	
19.320	-0.137	-0.028	
19.325	0.142	-0.031	
19.330	0.021	-0.019	
19.335	-0.183	-0.009	
19.340	0.000	-0.019	
19.345	0.101	-0.024	
19.350	-0.168	-0.021	
19.355	-0.125	-0.032	
19.360	0.134	-0.044	
19.365	-0.056	-0.038	
19.370	-0.149	-0.034	
19.375	0.055	-0.040	
19.380	0.001	-0.037	
19.385	-0.149	-0.033	
19.390	0.053	-0.036	
19.395	0.166	-0.025	
19.400	-0.128	-0.004	
19.405	-0.098	-0.001	
19.410	0.155	-0.007	
19.415	-0.063	-0.002	
19.420	-0.114	-0.003	
19.425	0.177	-0.008	
19.430	0.049	0.004	
19.435	-0.151	0.015	
19.440	0.047	0.008	
19.445	0.139	0.007	
19.450	-0.148	0.013	
19.455	-0.089	0.003	
19.460	0.209	-0.008	
19.465	-0.021	0.002	
19.470	-0.107	0.009	
19.475	0.195	0.009	
19.480	0.125	0.027	
19.485	-0.114	0.045	
19.490	0.101	0.046	
19.495	0.238	0.053	
19.500	-0.085	0.069	
19.505	-0.050	0.065	
19.510	0.160	0.050	
19.515	-0.096	0.041	
19.520	-0.185	0.019	
19.525	0.064	-0.014	
19.530	-0.029	-0.031	
19.535	-0.221	-0.044	
19.540	-0.090	-0.068	
19.545	0.000	-0.086	
19.550	-0.188	-0.092	
19.555	-0.122	-0.100	
19.560	0.091	-0.102	
19.565	-0.133	-0.087	
19.570	-0.206	-0.081	
19.575	0.024	-0.087	
19.580	-0.002	-0.082	
19.585	-0.110	-0.068	
19.590	0.218	-0.049	
19.595	0.454	0.006	
19.600	0.288	0.097	
19.605	0.492	0.194	
19.610	0.834	0.303	
19.615	0.476	0.422	
19.620	0.161	0.493	
19.625	0.312	0.488	
19.630	0.137	0.438	
19.635	-0.124	0.354	
19.640	0.001	0.242	
19.645	0.097	0.142	
19.650	-0.177	0.067	
19.655	-0.183	-0.002	
19.660	-0.041	-0.063	
19.665	-0.191	-0.102	
19.670	-0.238	-0.133	
19.675	-0.064	-0.157	
19.680	-0.143	-0.164	
19.685	-0.281	-0.166	
19.690	-0.124	-0.174	
19.695	-0.026	-0.172	
19.700	-0.201	-0.156	
19.705	-0.153	-0.147	
19.710	0.035	-0.137	
19.715	-0.131	-0.116	
19.720	-0.201	-0.105	
19.725	0.049	-0.102	
19.730	-0.038	-0.088	
19.735	-0.191	-0.075	
19.740	0.027	-0.073	
19.745	0.143	-0.058	
19.750	-0.153	-0.033	
19.755	-0.117	-0.027	
19.760	0.101	-0.032	
19.765	-0.125	-0.031	
19.770	-0.178	-0.040	
19.775	0.075	-0.056	
19.780	0.018	-0.054	
19.785	-0.154	-0.045	
19.790	0.029	-0.044	
19.795	0.143	-0.034	
19.800	-0.087	-0.012	
19.805	0.020	0.001	
19.810	0.261	0.017	
19.815	0.011	0.047	
19.820	-0.003	0.066	
19.825	0.367	0.080	
19.830	0.219	0.116	
19.835	-0.050	0.148	
19.840	0.232	0.152	
19.845	0.300	0.159	
19.850	-0.050	0.169	
19.855	0.011	0.153	
19.860	0.230	0.126	
19.865	-0.058	0.108	
19.870	-0.134	0.079	
19.875	0.085	0.039	
19.880	-0.070	0.010	
19.885	-0.253	-0.020	
19.890	-0.108	-0.063	
19.895	-0.053	-0.096	
19.900	-0.247	-0.116	
19.905	-0.204	-0.139	
19.910	-0.069	-0.158	
19.915	-0.224	-0.165	
19.920	-0.261	-0.173	
19.925	-0.070	-0.183	
19.930	-0.148	-0.180	
19.935	-0.277	-0.174	
19.940	-0.124	-0.178	
19.945	-0.069	-0.174	
19.950	-0.264	-0.164	
19.955	-0.201	-0.166	
19.960	0.001	-0.167	
19.965	-0.178	-0.154	
19.970	-0.253	-0.147	
19.975	-0.079	-0.152	
19.980	-0.148	-0.152	
19.985	-0.265	-0.154	
19.990	-0.114	-0.163	
19.995	-0.049	-0.162	
20.000	-0.239	-0.153	
20.005	-0.156	-0.151	
20.010	0.082	-0.145	
20.015	-0.137	-0.120	
20.020	-0.188	-0.104	
20.025	0.014	-0.099	
20.030	-0.056	-0.089	
20.035	-0.191	-0.081	
20.040	0.012	-0.081	
20.045	0.084	-0.071	
20.050	-0.174	-0.052	
20.055	-0.098	-0.050	
20.060	0.114	-0.051	
20.065	-0.110	-0.042	
20.070	-0.174	-0.042	
20.075	0.021	-0.055	
20.080	-0.070	-0.060	
20.085	-0.194	-0.066	
20.090	-0.027	-0.079	
20.095	0.049	-0.080	
20.100	-0.178	-0.071	
20.105	-0.117	-0.073	
20.110	0.088	-0.075	
20.115	-0.124	-0.066	
20.120	-0.172	-0.064	
20.125	0.111	-0.068	
20.130	0.030	-0.054	
20.135	-0.153	-0.036	
20.140	0.072	-0.030	
20.145	0.136	-0.015	
20.150	-0.154	0.003	
20.155	-0.069	0.001	
20.160	0.177	-0.006	
20.165	-0.058	0.002	
20.170	-0.111	0.004	
20.175	0.152	-0.002	
20.180	0.008	0.004	
20.185	-0.174	0.007	
20.190	-0.006	-0.009	
20.195	0.023	-0.023	
20.200	-0.180	-0.032	
20.205	-0.105	-0.051	
20.210	0.081	-0.065	
20.215	-0.125	-0.063	
20.220	-0.166	-0.066	
20.225	0.111	-0.071	
20.230	0.021	-0.057	
20.235	-0.159	-0.040	
20.240	0.046	-0.036	
20.245	0.122	-0.024	
20.250	-0.131	-0.007	
20.255	-0.027	-0.005	
20.260	0.206	-0.002	
20.265	-0.034	0.016	
20.270	-0.089	0.024	
20.275	0.148	0.021	
20.280	0.032	0.026	
20.285	-0.142	0.027	
20.290	0.033	0.013	
20.295	0.065	0.003	
20.300	-0.175	-0.003	
20.305	-0.104	-0.023	
20.310	0.079	-0.043	
20.315	-0.127	-0.048	
20.320	-0.159	-0.057	
20.325	0.113	-0.066	
20.330	0.004	-0.055	
20.335	-0.159	-0.041	
20.340	0.073	-0.038	
20.345	0.161	-0.022	
20.350	-0.124	0.002	
20.355	-0.058	0.007	
20.360	0.181	0.005	
20.365	-0.038	0.016	
20.370	-0.075	0.020	
20.375	0.198	0.018	
20.380	0.014	0.030	
20.385	-0.166	0.033	
20.390	0.035	0.015	
20.395	0.122	0.005	
20.400	-0.151	0.005	
20.405	-0.087	-0.009	
20.410	0.099	-0.024	
20.415	-0.140	-0.028	
20.420	-0.166	-0.041	
20.425	0.097	-0.057	
20.430	-0.009	-0.054	
20.435	-0.154	-0.046	
20.440	0.055	-0.045	
20.445	0.120	-0.033	
20.450	-0.124	-0.013	
20.455	-0.029	-0.008	
20.460	0.203	-0.003	
20.465	-0.058	0.015	
20.470	-0.111	0.019	
20.475	0.140	0.012	
20.480	-0.018	0.013	
20.485	-0.174	0.008	
20.490	0.043	-0.011	
20.495	0.111	-0.017	
20.500	-0.149	-0.012	
20.505	-0.075	-0.019	
20.510	0.107	-0.028	
20.515	-0.117	-0.026	
20.520	-0.163	-0.034	
20.525	0.044	-0.050	
20.530	-0.053	-0.055	
20.535	-0.192	-0.058	
20.540	0.043	-0.068	
20.545	0.113	-0.060	
20.550	-0.156	-0.039	
20.555	-0.058	-0.034	
20.560	0.154	-0.031	
20.565	-0.104	-0.016	
20.570	-0.134	-0.015	
20.575	0.151	-0.022	
20.580	0.014	-0.013	
20.585	-0.136	-0.004	
20.590	0.102	-0.006	
20.595	0.152	0.004	
20.600	-0.113	0.022	
20.605	-0.012	0.023	
20.610	0.215	0.022	
20.615	-0.067	0.034	
20.620	-0.110	0.033	
20.625	0.158	0.020	
20.630	0.001	0.019	
20.635	-0.136	0.017	
20.640	0.091	0.004	
20.645	0.123	0.005	
20.650	-0.154	0.013	
20.655	-0.041	0.004	
20.660	0.190	-0.003	
20.665	-0.090	0.005	
20.670	-0.143	0.002	
20.675	0.102	-0.012	
20.680	-0.052	-0.017	
20.685	-0.182	-0.024	
20.690	0.018	-0.042	
20.695	0.078	-0.046	
20.700	-0.180	-0.040	
20.705	-0.110	-0.047	
20.710	0.085	-0.057	
20.715	-0.131	-0.054	
20.720	-0.159	-0.059	
20.725	0.087	-0.067	
20.730	-0.079	-0.061	
20.735	-0.241	-0.062	
20.740	-0.095	-0.081	
20.745	-0.020	-0.096	
20.750	-0.146	-0.099	
20.755	0.143	-0.090	
20.760	0.527	-0.038	
20.765	0.369	0.067	
20.770	0.415	0.183	
20.775	0.744	0.297	
20.780	0.518	0.409	
20.785	0.137	0.477	
20.790	0.291	0.473	
20.795	0.279	0.430	
20.800	-0.102	0.363	
20.805	-0.073	0.264	
20.810	0.041	0.157	
20.815	-0.192	0.067	
20.820	-0.213	-0.016	
20.825	0.003	-0.082	
20.830	-0.137	-0.115	
20.835	-0.271	-0.135	
20.840	-0.125	-0.157	
20.845	-0.092	-0.167	
20.850	-0.249	-0.167	
20.855	-0.178	-0.172	
20.860	-0.053	-0.173	
20.865	-0.230	-0.165	
20.870	-0.212	-0.164	
20.875	-0.020	-0.165	
20.880	-0.133	-0.152	
20.885	-0.239	-0.142	
20.890	-0.079	-0.143	
20.895	-0.018	-0.136	
20.900	-0.192	-0.122	
20.905	-0.089	-0.115	
20.910	0.096	-0.103	
20.915	-0.111	-0.079	
20.920	-0.133	-0.064	
20.925	0.117	-0.057	
20.930	-0.018	-0.039	
20.935	-0.149	-0.026	
20.940	0.076	-0.026	
20.945	0.084	-0.017	
20.950	-0.153	-0.006	
20.955	-0.021	-0.010	
20.960	0.197	-0.010	
20.965	-0.085	0.005	
20.970	-0.089	0.008	
20.975	0.227	0.007	
20.980	0.033	0.023	
20.985	-0.125	0.035	
20.990	0.155	0.031	
20.995	0.227	0.043	
21.000	-0.058	0.066	
21.005	0.075	0.074	
21.010	0.293	0.082	
21.015	0.012	0.102	
21.020	0.084	0.111	
21.025	0.351	0.120	
21.030	0.096	0.142	
21.035	-0.119	0.147	
21.040	0.082	0.119	
21.045	0.064	0.089	
21.050	-0.192	0.058	
21.055	-0.110	0.013	
21.060	0.006	-0.031	
21.065	-0.207	-0.061	
21.070	-0.235	-0.094	
21.075	-0.021	-0.125	
21.080	-0.159	-0.137	
21.085	-0.294	-0.147	
21.090	-0.153	-0.167	
21.095	-0.137	-0.179	
21.100	-0.294	-0.186	
21.105	-0.213	-0.198	
21.110	-0.102	-0.205	
21.115	-0.264	-0.203	
21.120	-0.259	-0.205	
21.125	-0.064	-0.207	
21.130	-0.154	-0.195	
21.135	-0.250	-0.182	
21.140	-0.069	-0.175	
21.145	-0.047	-0.160	
21.150	-0.229	-0.141	
21.155	-0.125	-0.134	
21.160	0.043	-0.127	
21.165	-0.172	-0.109	
21.170	-0.194	-0.103	
21.175	0.044	-0.105	
21.180	-0.075	-0.095	
21.185	-0.204	-0.087	
21.190	-0.018	-0.090	
21.195	-0.040	-0.088	
21.200	-0.226	-0.085	
21.205	-0.133	-0.097	
21.210	0.023	-0.107	
21.215	-0.183	-0.104	
21.220	-0.191	-0.108	
21.225	0.064	-0.113	
21.230	-0.076	-0.101	
21.235	-0.198	-0.090	
21.240	0.021	-0.089	
21.245	0.059	-0.076	
21.250	-0.145	-0.056	
21.255	0.000	-0.047	
21.260	0.212	-0.030	
21.265	-0.060	0.000	
21.270	-0.122	0.014	
21.275	0.058	0.007	
21.280	-0.108	-0.003	
21.285	-0.213	-0.025	
21.290	-0.009	-0.056	
21.295	0.059	-0.069	
21.300	-0.168	-0.065	
21.305	-0.070	-0.067	
21.310	0.101	-0.066	
21.315	-0.133	-0.053	
21.320	-0.133	-0.050	
21.325	0.137	-0.052	
21.330	-0.035	-0.038	
21.335	-0.168	-0.029	
21.340	0.110	-0.031	
21.345	0.101	-0.020	
21.350	-0.177	-0.004	
21.355	-0.069	-0.010	
21.360	0.136	-0.020	
21.365	-0.117	-0.017	
21.370	-0.127	-0.023	
21.375	0.130	-0.033	
21.380	-0.067	-0.028	
21.385	-0.180	-0.030	
21.390	0.023	-0.043	
21.395	0.032	-0.047	
21.400	-0.177	-0.044	
21.405	-0.040	-0.051	
21.410	0.166	-0.050	
21.415	-0.096	-0.030	
21.420	-0.105	-0.022	
21.425	0.143	-0.021	
21.430	-0.027	-0.009	
21.435	-0.153	-0.005	
21.440	0.105	-0.012	
21.445	0.146	-0.004	
21.450	-0.137	0.012	
21.455	-0.049	0.010	
21.460	0.133	0.002	
21.465	-0.089	0.004	
21.470	-0.127	-0.004	
21.475	0.133	-0.017	
21.480	-0.027	-0.015	
21.485	-0.145	-0.014	
21.490	0.053	-0.023	
21.495	0.023	-0.024	
21.500	-0.183	-0.024	
21.505	-0.058	-0.038	
21.510	0.146	-0.045	
21.515	-0.119	-0.035	
21.520	-0.119	-0.033	
21.525	0.143	-0.036	
21.530	-0.038	-0.025	
21.535	-0.134	-0.018	
21.540	0.122	-0.020	
21.545	0.094	-0.007	
21.550	-0.156	0.007	
21.555	0.012	0.003	
21.560	0.169	0.003	
21.565	-0.113	0.013	
21.570	-0.104	0.008	
21.575	0.148	-0.004	
21.580	-0.066	-0.003	
21.585	-0.159	-0.009	
21.590	0.079	-0.024	
21.595	0.068	-0.024	
21.600	-0.163	-0.017	
21.605	-0.046	-0.024	
21.610	0.178	-0.027	
21.615	-0.027	-0.010	
21.620	0.012	0.006	
21.625	0.297	0.027	
21.630	0.101	0.064	
21.635	-0.084	0.090	
21.640	0.140	0.090	
21.645	0.097	0.086	
21.650	-0.142	0.078	
21.655	-0.003	0.050	
21.660	0.160	0.028	
21.665	-0.146	0.020	
21.670	-0.151	-0.001	
21.675	0.110	-0.027	
21.680	-0.084	-0.035	
21.685	-0.209	-0.045	
21.690	-0.038	-0.067	
21.695	-0.056	-0.081	
21.700	-0.227	-0.090	
21.705	-0.093	-0.106	
21.710	0.049	-0.111	
21.715	-0.183	-0.101	
21.720	-0.178	-0.101	
21.725	0.058	-0.104	
21.730	-0.076	-0.093	
21.735	-0.133	-0.081	
21.740	0.271	-0.063	
21.745	0.453	-0.003	
21.750	0.256	0.093	
21.755	0.463	0.189	
21.760	0.611	0.284	
21.765	0.253	0.368	
21.770	0.201	0.402	
21.775	0.389	0.393	
21.780	0.072	0.364	
21.785	-0.143	0.301	
21.790	0.004	0.204	
21.795	-0.061	0.110	
21.800	-0.238	0.027	
21.805	-0.125	-0.049	
21.810	0.014	-0.100	
21.815	-0.201	-0.120	
21.820	-0.188	-0.134	
21.825	0.024	-0.142	
21.830	-0.131	-0.132	
21.835	-0.227	-0.124	
21.840	-0.043	-0.127	
21.845	-0.046	-0.121	
21.850	-0.223	-0.112	
21.855	-0.114	-0.115	
21.860	0.015	-0.115	
21.865	-0.182	-0.107	
21.870	-0.166	-0.106	
21.875	0.079	-0.107	
21.880	-0.076	-0.091	
21.885	-0.153	-0.077	
21.890	0.087	-0.069	
21.895	0.038	-0.050	
21.900	-0.148	-0.031	
21.905	-0.009	-0.028	
21.910	0.088	-0.025	
21.915	-0.160	-0.019	
21.920	-0.127	-0.028	
21.925	0.155	-0.040	
21.930	-0.043	-0.032	
21.935	-0.159	-0.026	
21.940	0.110	-0.030	
21.945	0.099	-0.019	
21.950	-0.111	-0.001	
21.955	0.043	0.004	
21.960	0.245	0.016	
21.965	-0.021	0.043	
21.970	-0.037	0.055	
21.975	0.226	0.058	
21.980	0.026	0.068	
21.985	-0.076	0.070	
21.990	0.255	0.064	
21.995	0.235	0.080	
22.000	-0.044	0.104	
22.005	0.158	0.111	
22.010	0.290	0.120	
22.015	-0.047	0.134	
22.020	-0.078	0.122	
22.025	0.149	0.091	
22.030	-0.105	0.064	
22.035	-0.217	0.026	
22.040	-0.035	-0.024	
22.045	-0.081	-0.061	
22.050	-0.241	-0.088	
22.055	-0.146	-0.118	
22.060	-0.082	-0.139	
22.065	-0.282	-0.151	
22.070	-0.241	-0.170	
22.075	-0.085	-0.188	
22.080	-0.209	-0.190	
22.085	-0.273	-0.192	
22.090	-0.093	-0.197	
22.095	-0.120	-0.189	
22.100	-0.264	-0.178	
22.105	-0.140	-0.176	
22.110	-0.049	-0.170	
22.115	-0.242	-0.158	
22.120	-0.218	-0.158	
22.125	-0.021	-0.161	
22.130	-0.159	-0.152	
22.135	-0.255	-0.147	
22.140	-0.069	-0.151	
22.145	-0.075	-0.147	
22.150	-0.226	-0.138	
22.155	-0.084	-0.137	
22.160	0.058	-0.126	
22.165	-0.177	-0.104	
22.170	-0.171	-0.096	
22.175	0.053	-0.096	
22.180	-0.078	-0.084	
22.185	-0.162	-0.075	
22.190	0.040	-0.074	
22.195	-0.031	-0.065	
22.200	-0.200	-0.058	
22.205	-0.049	-0.067	
22.210	0.073	-0.069	
22.215	-0.163	-0.060	
22.220	-0.136	-0.063	
22.225	0.072	-0.069	
22.230	-0.120	-0.065	
22.235	-0.191	-0.067	
22.240	0.044	-0.077	
22.245	0.003	-0.072	
22.250	-0.169	-0.062	
22.255	-0.014	-0.062	
22.260	0.154	-0.052	
22.265	-0.110	-0.029	
22.270	-0.113	-0.021	
22.275	0.107	-0.023	
22.280	-0.087	-0.020	
22.285	-0.163	-0.025	
22.290	0.117	-0.037	
22.295	0.078	-0.029	
22.300	-0.148	-0.014	
22.305	0.015	-0.013	
22.310	0.155	-0.009	
22.315	-0.122	0.004	
22.320	-0.111	0.001	
22.325	0.079	-0.013	
22.330	-0.125	-0.021	
22.335	-0.204	-0.039	
22.340	0.026	-0.064	
22.345	-0.003	-0.071	
22.350	-0.174	-0.069	
22.355	-0.006	-0.072	
22.360	0.172	-0.060	
22.365	-0.104	-0.033	
22.370	-0.096	-0.019	
22.375	0.133	-0.017	
22.380	-0.081	-0.008	
22.385	-0.174	-0.012	
22.390	0.059	-0.029	
22.395	0.047	-0.032	
22.400	-0.137	-0.027	
22.405	0.052	-0.028	
22.410	0.186	-0.016	
22.415	-0.105	0.008	
22.420	-0.053	0.014	
22.425	0.248	0.016	
22.430	-0.041	0.033	
22.435	-0.157	0.036	
22.440	0.088	0.018	
22.445	0.050	0.009	
22.450	-0.122	0.006	
22.455	0.126	0.001	
22.460	0.277	0.016	
22.465	-0.075	0.049	
22.470	-0.040	0.060	
22.475	0.245	0.059	
22.480	-0.023	0.067	
22.485	-0.148	0.061	
22.490	0.094	0.036	
22.495	0.040	0.021	
22.500	-0.180	0.010	
22.505	-0.055	-0.015	
22.510	0.097	-0.033	
22.515	-0.139	-0.036	
22.520	-0.137	-0.046	
22.525	0.090	-0.057	
22.530	-0.095	-0.054	
22.535	-0.188	-0.056	
22.540	0.015	-0.068	
22.545	-0.058	-0.071	
22.550	-0.206	-0.073	
22.555	-0.038	-0.085	
22.560	0.111	-0.082	
22.565	-0.137	-0.064	
22.570	-0.111	-0.056	
22.575	0.149	-0.051	
22.580	-0.021	-0.032	
22.585	-0.066	-0.015	
22.590	0.338	0.005	
22.595	0.431	0.062	
22.600	0.259	0.146	
22.605	0.465	0.225	
22.610	0.527	0.302	
22.615	0.073	0.358	
22.620	0.024	0.351	
22.625	0.248	0.300	
22.630	-0.026	0.243	
22.635	-0.148	0.172	
22.640	0.073	0.094	
22.645	-0.020	0.037	
22.650	-0.206	-0.006	
22.655	-0.089	-0.050	
22.660	-0.012	-0.080	
22.665	-0.226	-0.096	
22.670	-0.191	-0.116	
22.675	0.033	-0.131	
22.680	-0.145	-0.127	
22.685	-0.244	-0.124	
22.690	-0.032	-0.131	
22.695	-0.070	-0.127	
22.700	-0.235	-0.121	
22.705	-0.107	-0.125	
22.710	0.011	-0.124	
22.715	-0.186	-0.114	
22.720	-0.143	-0.111	
22.725	0.097	-0.106	
22.730	-0.090	-0.086	
22.735	-0.162	-0.072	
22.740	0.114	-0.065	
22.745	0.099	-0.042	
22.750	-0.140	-0.015	
22.755	0.027	-0.006	
22.760	0.146	0.002	
22.765	-0.108	0.016	
22.770	-0.050	0.014	
22.775	0.226	0.011	
22.780	-0.009	0.026	
22.785	-0.082	0.034	
22.790	0.218	0.034	
22.795	0.145	0.050	
22.800	-0.093	0.068	
22.805	0.116	0.068	
22.810	0.235	0.073	
22.815	-0.047	0.086	
22.820	0.009	0.084	
22.825	0.306	0.080	
22.830	0.037	0.094	
22.835	-0.082	0.097	
22.840	0.226	0.085	
22.845	0.174	0.089	
22.850	-0.084	0.096	
22.855	0.113	0.088	
22.860	0.190	0.083	
22.865	-0.107	0.083	
22.870	-0.090	0.063	
22.875	0.070	0.031	
22.880	-0.153	0.005	
22.885	-0.221	-0.030	
22.890	-0.014	-0.069	
22.895	-0.104	-0.092	
22.900	-0.294	-0.110	
22.905	-0.194	-0.140	
22.910	-0.124	-0.166	
22.915	-0.277	-0.181	
22.920	-0.204	-0.196	
22.925	-0.056	-0.201	
22.930	-0.235	-0.192	
22.935	-0.294	-0.190	
22.940	-0.116	-0.197	
22.945	-0.166	-0.196	
22.950	-0.290	-0.194	
22.955	-0.140	-0.198	
22.960	-0.056	-0.192	
22.965	-0.229	-0.176	
22.970	-0.177	-0.168	
22.975	0.017	-0.159	
22.980	-0.168	-0.139	
22.985	-0.192	-0.128	
22.990	0.037	-0.122	
22.995	-0.079	-0.106	
23.000	-0.207	-0.094	
23.005	-0.046	-0.095	
23.010	0.026	-0.091	
23.015	-0.183	-0.080	
23.020	-0.119	-0.081	
23.025	0.091	-0.082	
23.030	-0.117	-0.070	
23.035	-0.191	-0.066	
23.040	0.014	-0.075	
23.045	-0.067	-0.076	
23.050	-0.209	-0.077	
23.055	-0.029	-0.088	
23.060	0.065	-0.086	
23.065	-0.163	-0.072	
23.070	-0.098	-0.068	
23.075	0.130	-0.065	
23.080	-0.092	-0.048	
23.085	-0.134	-0.039	
23.090	0.152	-0.037	
23.095	0.033	-0.020	
23.100	-0.177	-0.006	
23.105	-0.003	-0.013	
23.110	0.082	-0.019	
23.115	-0.151	-0.017	
23.120	-0.119	-0.029	
23.125	0.094	-0.043	
23.130	-0.119	-0.044	
23.135	-0.185	-0.052	
23.140	0.061	-0.066	
23.145	-0.032	-0.065	
23.150	-0.182	-0.061	
23.155	0.029	-0.065	
23.160	0.130	-0.054	
23.165	-0.143	-0.032	
23.170	-0.073	-0.026	
23.175	0.190	-0.023	
23.180	-0.038	-0.005	
23.185	-0.148	0.004	
23.190	0.072	-0.005	
23.195	-0.031	-0.010	
23.200	-0.201	-0.019	
23.205	-0.034	-0.042	
23.210	0.061	-0.055	
23.215	-0.169	-0.055	
23.220	-0.081	-0.061	
23.225	0.161	-0.061	
23.230	-0.072	-0.042	
23.235	-0.134	-0.030	
23.240	0.134	-0.028	
23.245	0.023	-0.015	
23.250	-0.163	-0.005	
23.255	0.032	-0.011	
23.260	0.128	-0.011	
23.265	-0.124	-0.002	
23.270	-0.044	-0.004	
23.275	0.189	-0.006	
23.280	-0.076	0.007	
23.285	-0.143	0.006	
23.290	0.128	-0.006	
23.295	0.023	-0.004	
23.300	-0.157	-0.002	
23.305	0.012	-0.014	
23.310	0.091	-0.019	
23.315	-0.157	-0.016	
23.320	-0.098	-0.026	
23.325	0.136	-0.037	
23.330	-0.087	-0.031	
23.335	-0.134	-0.030	
23.340	0.172	-0.033	
23.345	0.067	-0.015	
23.350	-0.130	0.004	
23.355	0.101	0.009	
23.360	0.165	0.020	
23.365	-0.159	0.035	
23.370	-0.085	0.024	
23.375	0.137	0.006	
23.380	-0.127	-0.001	
23.385	-0.171	-0.018	
23.390	0.113	-0.039	
23.395	-0.020	-0.041	
23.400	-0.180	-0.039	
23.405	0.067	-0.045	
23.410	0.160	-0.035	
23.415	-0.117	-0.011	
23.420	-0.056	-0.003	
23.425	0.197	-0.000	
23.430	-0.049	0.014	
23.435	-0.085	0.020	
23.440	0.216	0.018	
23.445	0.090	0.035	
23.450	-0.114	0.049	
23.455	0.091	0.045	
23.460	0.160	0.045	
23.465	-0.089	0.052	
23.470	0.009	0.045	
23.475	0.201	0.040	
23.480	-0.101	0.044	
23.485	-0.172	0.030	
23.490	0.058	-0.000	
23.495	-0.032	-0.019	
23.500	-0.188	-0.034	
23.505	-0.046	-0.056	
23.510	0.009	-0.069	
23.515	-0.209	-0.073	
23.520	-0.151	-0.088	
23.525	0.030	-0.101	
23.530	-0.146	-0.100	
23.535	-0.185	-0.101	
23.540	0.044	-0.105	
23.545	-0.066	-0.095	
23.550	-0.194	-0.086	
23.555	0.003	-0.086	
23.560	0.154	-0.072	
23.565	0.004	-0.037	
23.570	0.239	0.005	
23.575	0.598	0.075	
23.580	0.425	0.181	
23.585	0.378	0.284	
23.590	0.671	0.368	
23.595	0.444	0.441	
23.600	0.059	0.470	
23.605	0.233	0.434	
23.610	0.223	0.371	
23.615	-0.172	0.295	
23.620	-0.143	0.191	
23.625	0.009	0.084	
23.630	-0.178	0.001	
23.635	-0.236	-0.066	
23.640	-0.067	-0.120	
23.645	-0.159	-0.149	
23.650	-0.287	-0.167	
23.655	-0.095	-0.183	
23.660	-0.031	-0.180	
23.665	-0.232	-0.164	
23.670	-0.166	-0.156	
23.675	0.008	-0.149	
23.680	-0.186	-0.133	
23.685	-0.241	-0.129	
23.690	0.003	-0.134	
23.695	-0.066	-0.125	
23.700	-0.213	-0.114	
23.705	-0.061	-0.113	
23.710	0.004	-0.107	
23.715	-0.186	-0.095	
23.720	-0.099	-0.093	
23.725	0.131	-0.087	
23.730	-0.111	-0.065	
23.735	-0.154	-0.054	
23.740	0.107	-0.053	
23.745	0.014	-0.039	
23.750	-0.157	-0.026	
23.755	0.072	-0.026	
23.760	0.143	-0.015	
23.765	-0.145	0.003	
23.770	-0.056	0.002	
23.775	0.183	-0.002	
23.780	-0.060	0.007	
23.785	-0.075	0.010	
23.790	0.287	0.013	
23.795	0.131	0.042	
23.800	-0.096	0.069	
23.805	0.163	0.074	
23.810	0.280	0.086	
23.815	-0.046	0.108	
23.820	0.032	0.109	
23.825	0.273	0.103	
23.830	0.044	0.109	
23.835	-0.040	0.107	
23.840	0.210	0.094	
23.845	0.043	0.090	
23.850	-0.142	0.079	
23.855	0.058	0.050	
23.860	0.061	0.028	
23.865	-0.230	0.010	
23.870	-0.201	-0.029	
23.875	-0.052	-0.074	
23.880	-0.223	-0.107	
23.885	-0.267	-0.139	
23.890	-0.085	-0.167	
23.895	-0.159	-0.178	
23.900	-0.262	-0.181	
23.905	-0.114	-0.186	
23.910	-0.102	-0.182	
23.915	-0.271	-0.173	
23.920	-0.198	-0.176	
23.925	-0.049	-0.178	
23.930	-0.215	-0.170	
23.935	-0.223	-0.167	
23.940	-0.026	-0.166	
23.945	-0.124	-0.153	
23.950	-0.253	-0.143	
23.955	-0.087	-0.145	
23.960	-0.015	-0.139	
23.965	-0.215	-0.126	
23.970	-0.163	-0.125	
23.975	-0.017	-0.127	
23.980	-0.182	-0.122	
23.985	-0.194	-0.123	
23.990	0.023	-0.126	
23.995	-0.098	-0.116	
24.000	-0.223	-0.108	
24.005	-0.035	-0.110	
24.010	0.043	-0.103	
24.015	-0.195	-0.087	
24.020	-0.110	-0.084	
24.025	0.082	-0.083	
24.030	-0.139	-0.070	
24.035	-0.165	-0.068	
24.040	0.087	-0.072	
24.045	0.012	-0.060	
24.050	-0.149	-0.044	
24.055	0.049	-0.040	
24.060	0.122	-0.027	
24.065	-0.142	-0.009	
24.070	-0.069	-0.009	
24.075	0.119	-0.014	
24.080	-0.131	-0.013	
24.085	-0.145	-0.023	
24.090	0.094	-0.039	
24.095	-0.038	-0.039	
24.100	-0.182	-0.040	
24.105	-0.003	-0.051	
24.110	0.075	-0.053	
24.115	-0.156	-0.044	
24.120	-0.070	-0.046	
24.125	0.123	-0.046	
24.130	-0.120	-0.035	
24.135	-0.151	-0.036	
24.140	0.099	-0.044	
24.145	-0.012	-0.039	
24.150	-0.142	-0.032	
24.155	0.087	-0.032	
24.160	0.126	-0.019	
24.165	-0.113	0.001	
24.170	0.012	0.007	
24.175	0.174	0.012	
24.180	-0.125	0.024	
24.185	-0.168	0.014	
24.190	0.059	-0.012	
24.195	-0.063	-0.028	
24.200	-0.197	-0.043	
24.205	-0.003	-0.063	
24.210	0.067	-0.068	
24.215	-0.162	-0.059	
24.220	-0.093	-0.060	
24.225	0.114	-0.060	
24.230	-0.105	-0.048	
24.235	-0.139	-0.044	
24.240	0.119	-0.046	
24.245	0.035	-0.032	
24.250	-0.139	-0.017	
24.255	0.079	-0.014	
24.260	0.133	-0.003	
24.265	-0.142	0.012	
24.270	-0.069	0.007	
24.275	0.157	-0.002	
24.280	-0.081	0.001	
24.285	-0.128	-0.003	
24.290	0.125	-0.015	
24.295	-0.037	-0.014	
24.300	-0.180	-0.017	
24.305	0.017	-0.033	
24.310	0.076	-0.038	
24.315	-0.156	-0.033	
24.320	-0.056	-0.037	
24.325	0.175	-0.037	
24.330	-0.095	-0.021	
24.335	-0.133	-0.016	
24.340	0.178	-0.019	
24.345	-0.008	-0.007	
24.350	-0.162	0.000	
24.355	0.052	-0.009	
24.360	0.079	-0.011	
24.365	-0.172	-0.008	
24.370	-0.084	-0.021	
24.375	0.128	-0.034	
24.380	-0.095	-0.030	
24.385	-0.127	-0.031	
24.390	0.130	-0.036	
24.395	-0.018	-0.027	
24.400	-0.149	-0.020	
24.405	0.082	-0.023	
24.410	0.107	-0.015	
24.415	-0.148	-0.002	
24.420	-0.060	-0.006	
24.425	0.114	-0.014	
24.430	-0.125	-0.014	
24.435	-0.151	-0.024	
24.440	0.117	-0.039	
24.445	-0.031	-0.037	
24.450	-0.186	-0.035	
24.455	0.029	-0.045	
24.460	0.076	-0.044	
24.465	-0.177	-0.035	
24.470	-0.069	-0.040	
24.475	0.151	-0.043	
24.480	-0.075	-0.029	
24.485	-0.114	-0.022	
24.490	0.155	-0.021	
24.495	-0.020	-0.009	
24.500	-0.183	-0.004	
24.505	0.008	-0.019	
24.510	0.044	-0.028	
24.515	-0.145	-0.030	
24.520	-0.032	-0.038	
24.525	0.154	-0.037	
24.530	-0.131	-0.024	
24.535	-0.159	-0.025	
24.540	0.111	-0.036	
24.545	-0.034	-0.034	
24.550	-0.159	-0.032	
24.555	0.046	-0.039	
24.560	0.076	-0.035	
24.565	-0.120	-0.023	
24.570	0.020	-0.019	
24.575	0.216	-0.008	
24.580	-0.066	0.017	
24.585	-0.104	0.025	
24.590	0.183	0.021	
24.595	0.035	0.028	
24.600	-0.110	0.033	
24.605	0.140	0.028	
24.610	0.158	0.035	
24.615	-0.114	0.048	
24.620	0.000	0.042	
24.625	0.207	0.036	
24.630	-0.066	0.042	
24.635	-0.085	0.037	
24.640	0.177	0.025	
24.645	0.004	0.027	
24.650	-0.178	0.023	
24.655	0.008	0.001	
24.660	0.023	-0.016	
24.665	-0.197	-0.029	
24.670	-0.093	-0.051	
24.675	0.067	-0.067	
24.680	-0.146	-0.067	
24.685	-0.172	-0.073	
24.690	0.035	-0.084	
24.695	-0.087	-0.082	
24.700	-0.195	-0.082	
24.705	0.026	-0.087	
24.710	0.015	-0.080	
24.715	-0.203	-0.068	
24.720	-0.116	-0.073	
24.725	0.085	-0.078	
24.730	-0.049	-0.066	
24.735	0.058	-0.046	
24.740	0.477	-0.002	
24.745	0.431	0.086	
24.750	0.337	0.191	
24.755	0.660	0.289	
24.760	0.634	0.389	
24.765	0.158	0.463	
24.770	0.184	0.466	
24.775	0.294	0.420	
24.780	-0.073	0.352	
24.785	-0.133	0.254	
24.790	0.094	0.148	
24.795	-0.096	0.066	
24.800	-0.250	-0.002	
24.805	-0.084	-0.066	
24.810	-0.084	-0.109	
24.815	-0.284	-0.135	
24.820	-0.209	-0.162	
24.825	-0.044	-0.180	
24.830	-0.230	-0.180	
24.835	-0.241	-0.181	
24.840	-0.020	-0.182	
24.845	-0.124	-0.168	
24.850	-0.235	-0.153	
24.855	-0.063	-0.147	
24.860	-0.052	-0.137	
24.865	-0.221	-0.124	
24.870	-0.114	-0.123	
24.875	0.070	-0.117	
24.880	-0.143	-0.098	
24.885	-0.157	-0.088	
24.890	0.059	-0.085	
24.895	-0.082	-0.074	
24.900	-0.182	-0.068	
24.905	0.050	-0.070	
24.910	0.068	-0.059	
24.915	-0.153	-0.041	
24.920	-0.035	-0.037	
24.925	0.149	-0.032	
24.930	-0.075	-0.015	
24.935	-0.084	-0.007	
24.940	0.175	-0.006	
24.945	-0.035	0.007	
24.950	-0.140	0.010	
24.955	0.149	0.002	
24.960	0.203	0.015	
24.965	-0.101	0.039	
24.970	0.064	0.047	
24.975	0.302	0.057	
24.980	0.015	0.083	
24.985	-0.006	0.096	
24.990	0.290	0.098	
24.995	0.131	0.113	
25.000	-0.066	0.122	
25.005	0.200	0.113	
25.010	0.160	0.111	
25.015	-0.131	0.107	
25.020	-0.053	0.078	
25.025	0.107	0.044	
25.030	-0.160	0.019	
25.035	-0.183	-0.016	
25.040	-0.014	-0.054	
25.045	-0.154	-0.080	
25.050	-0.256	-0.105	
25.055	-0.105	-0.133	
25.060	-0.114	-0.149	
25.065	-0.285	-0.158	
25.070	-0.210	-0.175	
25.075	-0.099	-0.188	
25.080	-0.259	-0.190	
25.085	-0.264	-0.197	
25.090	-0.081	-0.204	
25.095	-0.195	-0.199	
25.100	-0.284	-0.194	
25.105	-0.092	-0.195	
25.110	-0.085	-0.185	
25.115	-0.250	-0.170	
25.120	-0.149	-0.165	
25.125	-0.029	-0.159	
25.130	-0.217	-0.146	
25.135	-0.210	-0.144	
25.140	0.029	-0.144	
25.145	-0.076	-0.128	
25.150	-0.177	-0.111	
25.155	0.032	-0.100	
25.160	-0.023	-0.083	
25.165	-0.232	-0.070	
25.170	-0.110	-0.079	
25.175	0.081	-0.085	
25.180	-0.148	-0.077	
25.185	-0.168	-0.077	
25.190	0.050	-0.082	
25.195	-0.078	-0.077	
25.200	-0.192	-0.073	
25.205	0.030	-0.078	
25.210	0.046	-0.070	
25.215	-0.185	-0.056	
25.220	-0.063	-0.057	
25.225	0.108	-0.056	
25.230	-0.168	-0.046	
25.235	-0.171	-0.051	
25.240	0.096	-0.063	
25.245	-0.067	-0.059	
25.250	-0.178	-0.057	
25.255	0.043	-0.063	
25.260	0.058	-0.055	
25.265	-0.178	-0.043	
25.270	-0.064	-0.045	
25.275	0.134	-0.046	
25.280	-0.113	-0.034	
25.285	-0.108	-0.031	
25.290	0.142	-0.032	
25.295	-0.015	-0.020	
25.300	-0.160	-0.012	
25.305	0.052	-0.019	
25.310	0.049	-0.020	
25.315	-0.177	-0.017	
25.320	-0.049	-0.029	
25.325	0.114	-0.037	
25.330	-0.120	-0.032	
25.335	-0.111	-0.034	
25.340	0.155	-0.037	
25.345	-0.029	-0.024	
25.350	-0.177	-0.017	
25.355	0.026	-0.027	
25.360	0.052	-0.030	
25.365	-0.149	-0.027	
25.370	-0.032	-0.033	
25.375	0.133	-0.034	
25.380	-0.114	-0.023	
25.385	-0.098	-0.022	
25.390	0.181	-0.023	
25.395	-0.021	-0.008	
25.400	-0.163	-0.001	
25.405	0.055	-0.010	
25.410	0.087	-0.012	
25.415	-0.137	-0.006	
25.420	-0.012	-0.011	
25.425	0.113	-0.014	
25.430	-0.136	-0.009	
25.435	-0.120	-0.018	
25.440	0.151	-0.030	
25.445	-0.027	-0.023	
25.450	-0.137	-0.017	
25.455	0.065	-0.022	
25.460	0.064	-0.018	
25.465	-0.159	-0.011	
25.470	-0.034	-0.019	
25.475	0.142	-0.023	
25.480	-0.117	-0.015	
25.485	-0.127	-0.018	
25.490	0.114	-0.028	
25.495	-0.066	-0.026	
25.500	-0.169	-0.029	
25.505	0.052	-0.041	
25.510	0.055	-0.040	
25.515	-0.128	-0.031	
25.520	0.012	-0.029	
25.525	0.137	-0.021	
25.530	-0.137	-0.007	
25.535	-0.139	-0.011	
25.540	0.137	-0.024	
25.545	-0.041	-0.022	
25.550	-0.157	-0.021	
25.555	0.082	-0.030	
25.560	0.085	-0.024	
25.565	-0.151	-0.012	
25.570	-0.006	-0.014	
25.575	0.180	-0.012	
25.580	-0.122	0.002	
25.585	-0.131	-0.000	
25.590	0.114	-0.014	
25.595	-0.061	-0.016	
25.600	-0.162	-0.022	
25.605	0.136	-0.033	
25.610	0.113	-0.021	
25.615	-0.177	-0.003	
25.620	-0.075	-0.009	
25.625	0.082	-0.021	
25.630	-0.131	-0.025	
25.635	-0.102	-0.035	
25.640	0.171	-0.042	
25.645	-0.031	-0.027	
25.650	-0.159	-0.018	
25.655	0.091	-0.021	
25.660	0.101	-0.014	
25.665	-0.169	-0.001	
25.670	-0.053	-0.009	
25.675	0.143	-0.017	
25.680	-0.101	-0.012	
25.685	-0.085	-0.014	
25.690	0.178	-0.016	
25.695	-0.063	-0.005	
25.700	-0.171	-0.004	
25.705	0.094	-0.017	
25.710	0.091	-0.015	
25.715	-0.122	-0.004	
25.720	0.040	-0.003	
25.725	0.154	0.003	
25.730	-0.122	0.016	
25.735	-0.095	0.011	
25.740	0.194	0.001	
25.745	0.009	0.010	
25.750	-0.111	0.017	
25.755	0.198	0.017	
25.760	0.168	0.034	
25.765	-0.117	0.056	
25.770	0.018	0.054	
25.775	0.198	0.048	
25.780	-0.093	0.052	
25.785	-0.087	0.040	
25.790	0.175	0.023	
25.795	-0.056	0.020	
25.800	-0.180	0.009	
25.805	0.001	-0.017	
25.810	-0.003	-0.035	
25.815	-0.166	-0.045	
25.820	-0.031	-0.059	
25.825	0.078	-0.062	
25.830	-0.194	-0.055	
25.835	-0.201	-0.065	
25.840	0.003	-0.085	
25.845	-0.127	-0.094	
25.850	-0.226	-0.103	
25.855	-0.053	-0.118	
25.860	-0.075	-0.122	
25.865	-0.194	-0.120	
25.870	0.062	-0.115	
25.875	0.383	-0.077	
25.880	0.183	0.002	
25.885	0.319	0.090	
25.890	0.697	0.187	
25.895	0.453	0.300	
25.900	0.216	0.384	
25.905	0.361	0.412	
25.910	0.227	0.403	
25.915	-0.084	0.359	
25.920	0.024	0.274	
25.925	0.110	0.186	
25.930	-0.177	0.111	
25.935	-0.195	0.033	
25.940	-0.038	-0.039	
25.945	-0.188	-0.088	
25.950	-0.282	-0.128	
25.955	-0.096	-0.164	
25.960	-0.128	-0.179	
25.965	-0.284	-0.182	
25.970	-0.160	-0.190	
25.975	-0.024	-0.188	
25.980	-0.213	-0.171	
25.985	-0.192	-0.161	
25.990	0.046	-0.152	
25.995	-0.063	-0.127	
26.000	-0.159	-0.102	
26.005	0.037	-0.087	
26.010	-0.021	-0.068	
26.015	-0.198	-0.056	
26.020	-0.072	-0.062	
26.025	0.073	-0.066	
26.030	-0.117	-0.058	
26.035	-0.104	-0.055	
26.040	0.128	-0.053	
26.045	-0.111	-0.040	
26.050	-0.198	-0.040	
26.055	0.030	-0.055	
26.060	0.003	-0.058	
26.065	-0.162	-0.055	
26.070	0.021	-0.057	
26.075	0.168	-0.045	
26.080	-0.108	-0.020	
26.085	-0.038	-0.007	
26.090	0.287	0.005	
26.095	0.053	0.037	
26.100	-0.082	0.060	
26.105	0.224	0.066	
26.110	0.197	0.082	
26.115	-0.066	0.101	
26.120	0.151	0.101	
26.125	0.317	0.108	
26.130	-0.002	0.128	
26.135	0.030	0.130	
26.140	0.319	0.124	
26.145	0.068	0.133	
26.150	-0.113	0.128	
26.155	0.130	0.101	
26.160	0.067	0.079	
26.165	-0.206	0.056	
26.170	-0.107	0.014	
26.175	0.001	-0.029	
26.180	-0.218	-0.059	
26.185	-0.217	-0.094	
26.190	-0.050	-0.125	
26.195	-0.218	-0.143	
26.200	-0.303	-0.161	
26.205	-0.119	-0.184	
26.210	-0.139	-0.193	
26.215	-0.284	-0.193	
26.220	-0.168	-0.198	
26.225	-0.076	-0.196	
26.230	-0.221	-0.183	
26.235	-0.197	-0.177	
26.240	-0.029	-0.170	
26.245	-0.174	-0.156	
26.250	-0.273	-0.150	
26.255	-0.090	-0.156	
26.260	-0.082	-0.156	
26.265	-0.252	-0.150	
26.270	-0.139	-0.153	
26.275	-0.047	-0.153	
26.280	-0.233	-0.146	
26.285	-0.197	-0.148	
26.290	0.011	-0.151	
26.295	-0.145	-0.139	
26.300	-0.215	-0.130	
26.305	0.000	-0.128	
26.310	-0.021	-0.115	
26.315	-0.194	-0.098	
26.320	-0.056	-0.093	
26.325	0.072	-0.084	
26.330	-0.149	-0.067	
26.335	-0.110	-0.062	
26.340	0.168	-0.057	
26.345	-0.056	-0.037	
26.350	-0.140	-0.024	
26.355	0.062	-0.026	
26.360	-0.003	-0.023	
26.365	-0.200	-0.024	
26.370	-0.050	-0.041	
26.375	0.088	-0.051	
26.380	-0.154	-0.048	
26.385	-0.145	-0.055	
26.390	0.053	-0.066	
26.395	-0.127	-0.067	
26.400	-0.195	-0.073	
26.405	0.053	-0.084	
26.410	0.040	-0.076	
26.415	-0.133	-0.058	
26.420	0.035	-0.048	
26.425	0.128	-0.030	
26.430	-0.146	-0.010	
26.435	-0.053	-0.008	
26.440	0.218	-0.007	
26.445	-0.047	0.010	
26.450	-0.156	0.015	
26.455	0.070	0.002	
26.460	0.014	-0.006	
26.465	-0.166	-0.011	
26.470	-0.020	-0.027	
26.475	0.091	-0.036	
26.480	-0.151	-0.033	
26.485	-0.122	-0.040	
26.490	0.097	-0.051	
26.495	-0.095	-0.047	
26.500	-0.160	-0.048	
26.505	0.084	-0.055	
26.510	0.026	-0.047	
26.515	-0.160	-0.035	
26.520	-0.002	-0.037	
26.525	0.136	-0.032	
26.530	-0.124	-0.017	
26.535	-0.067	-0.015	
26.540	0.186	-0.014	
26.545	-0.064	-0.000	
26.550	-0.166	0.002	
26.555	0.079	-0.012	
26.560	0.035	-0.016	
26.565	-0.134	-0.014	
26.570	0.085	-0.017	
26.575	0.168	-0.006	
26.580	-0.139	0.013	
26.585	-0.108	0.010	
26.590	0.136	-0.003	
26.595	-0.081	-0.005	
26.600	-0.128	-0.013	
26.605	0.200	-0.020	
26.610	0.099	-0.003	
26.615	-0.168	0.016	
26.620	0.003	0.012	
26.625	0.197	0.010	
26.630	-0.082	0.021	
26.635	-0.040	0.022	
26.640	0.239	0.022	
26.645	0.014	0.039	
26.650	-0.105	0.048	
26.655	0.206	0.043	
26.660	0.114	0.053	
26.665	-0.136	0.061	
26.670	0.046	0.049	
26.675	0.175	0.040	
26.680	-0.139	0.040	
26.685	-0.128	0.022	
26.690	0.075	-0.006	
26.695	-0.107	-0.022	
26.700	-0.174	-0.041	
26.705	0.073	-0.060	
26.710	-0.026	-0.061	
26.715	-0.200	-0.058	
26.720	-0.063	-0.069	
26.725	-0.003	-0.076	
26.730	-0.213	-0.079	
26.735	-0.177	-0.094	
26.740	0.041	-0.108	
26.745	-0.137	-0.106	
26.750	-0.174	-0.104	
26.755	0.227	-0.096	
26.760	0.306	-0.047	
26.765	0.140	0.031	
26.770	0.515	0.114	
26.775	0.692	0.220	
26.780	0.334	0.335	
26.785	0.293	0.405	
26.790	0.393	0.426	
26.795	0.023	0.408	
26.800	-0.124	0.339	
26.805	0.116	0.237	
26.810	0.033	0.150	
26.815	-0.185	0.079	
26.820	-0.056	0.012	
26.825	0.014	-0.037	
26.830	-0.224	-0.065	
26.835	-0.200	-0.097	
26.840	-0.012	-0.124	
26.845	-0.183	-0.133	
26.850	-0.238	-0.141	
26.855	-0.052	-0.152	
26.860	-0.111	-0.150	
26.865	-0.253	-0.146	
26.870	-0.111	-0.151	
26.875	-0.008	-0.147	
26.880	-0.191	-0.133	
26.885	-0.120	-0.125	
26.890	0.140	-0.112	
26.895	-0.093	-0.081	
26.900	-0.168	-0.061	
26.905	0.114	-0.055	
26.910	0.043	-0.036	
26.915	-0.166	-0.019	
26.920	0.017	-0.020	
26.925	0.140	-0.016	
26.930	-0.145	-0.004	
26.935	-0.116	-0.010	
26.940	0.155	-0.021	
26.945	-0.063	-0.017	
26.950	-0.137	-0.016	
26.955	0.142	-0.022	
26.960	0.093	-0.010	
26.965	-0.127	0.007	
26.970	0.067	0.010	
26.975	0.219	0.020	
26.980	-0.040	0.043	
26.985	0.050	0.055	
26.990	0.335	0.069	
26.995	0.072	0.100	
27.000	-0.031	0.117	
27.005	0.303	0.119	
27.010	0.207	0.133	
27.015	-0.034	0.148	
27.020	0.194	0.143	
27.025	0.291	0.144	
27.030	-0.052	0.151	
27.035	-0.006	0.135	
27.040	0.265	0.112	
27.045	-0.058	0.101	
27.050	-0.194	0.075	
27.055	-0.056	0.025	
27.060	-0.154	-0.025	
27.065	-0.308	-0.076	
27.070	-0.175	-0.131	
27.075	-0.098	-0.169	
27.080	-0.268	-0.186	
27.085	-0.223	-0.199	
27.090	-0.070	-0.205	
27.095	-0.227	-0.198	
27.100	-0.249	-0.193	
27.105	-0.060	-0.191	
27.110	-0.140	-0.179	
27.115	-0.287	-0.168	
27.120	-0.149	-0.172	
27.125	-0.078	-0.173	
27.130	-0.246	-0.167	
27.135	-0.188	-0.168	
27.140	-0.008	-0.166	
27.145	-0.174	-0.152	
27.150	-0.233	-0.144	
27.155	-0.023	-0.145	
27.160	-0.085	-0.135	
27.165	-0.252	-0.126	
27.170	-0.116	-0.130	
27.175	-0.011	-0.132	
27.180	-0.215	-0.124	
27.185	-0.160	-0.125	
27.190	0.061	-0.125	
27.195	-0.117	-0.108	
27.200	-0.172	-0.096	
27.205	0.073	-0.091	
27.210	-0.044	-0.074	
27.215	-0.186	-0.062	
27.220	0.000	-0.064	
27.225	0.105	-0.056	
27.230	-0.166	-0.040	
27.235	-0.114	-0.041	
27.240	0.107	-0.047	
27.245	-0.130	-0.043	
27.250	-0.194	-0.049	
27.255	0.030	-0.065	
27.260	-0.034	-0.069	
27.265	-0.172	-0.068	
27.270	-0.012	-0.073	
27.275	0.073	-0.067	
27.280	-0.157	-0.053	
27.285	-0.090	-0.052	
27.290	0.133	-0.051	
27.295	-0.090	-0.037	
27.300	-0.140	-0.032	
27.305	0.146	-0.034	
27.310	0.033	-0.020	
27.315	-0.175	-0.008	
27.320	0.029	-0.014	
27.325	0.128	-0.014	
27.330	-0.145	-0.005	
27.335	-0.079	-0.010	
27.340	0.190	-0.017	
27.345	-0.050	-0.005	
27.350	-0.151	-0.001	
27.355	0.084	-0.011	
27.360	-0.018	-0.015	
27.365	-0.163	-0.019	
27.370	-0.002	-0.033	
27.375	0.078	-0.038	
27.380	-0.154	-0.034	
27.385	-0.085	-0.040	
27.390	0.140	-0.044	
27.395	-0.090	-0.033	
27.400	-0.142	-0.030	
27.405	0.116	-0.035	
27.410	-0.003	-0.027	
27.415	-0.185	-0.021	
27.420	0.008	-0.032	
27.425	0.108	-0.034	
27.430	-0.163	-0.026	
27.435	-0.107	-0.032	
27.440	0.134	-0.040	
27.445	-0.067	-0.033	
27.450	-0.120	-0.028	
27.455	0.152	-0.028	
27.460	0.011	-0.014	
27.465	-0.162	-0.004	
27.470	0.047	-0.010	
27.475	0.116	-0.009	
27.480	-0.137	-0.001	
27.485	-0.037	-0.005	
27.490	0.219	-0.006	
27.495	-0.076	0.010	
27.500	-0.156	0.011	
27.505	0.102	-0.003	
27.510	0.020	-0.006	
27.515	-0.146	-0.007	
27.520	0.059	-0.016	
27.525	0.134	-0.012	
27.530	-0.133	0.001	
27.535	-0.041	-0.001	
27.540	0.245	-0.000	
27.545	0.000	0.021	
27.550	-0.069	0.036	
27.555	0.242	0.041	
27.560	0.152	0.062	
27.565	-0.084	0.083	
27.570	0.125	0.083	
27.575	0.212	0.085	
27.580	-0.111	0.090	
27.585	-0.085	0.072	
27.590	0.067	0.040	
27.595	-0.160	0.011	
27.600	-0.201	-0.026	
27.605	0.081	-0.061	
27.610	-0.041	-0.071	
27.615	-0.210	-0.073	
27.620	-0.052	-0.084	
27.625	0.033	-0.087	
27.630	-0.186	-0.080	
27.635	-0.117	-0.083	
27.640	0.126	-0.083	
27.645	-0.110	-0.066	
27.650	-0.197	-0.059	
27.655	0.012	-0.067	
27.660	-0.049	-0.069	
27.665	-0.162	-0.069	
27.670	0.158	-0.066	
27.675	0.357	-0.028	
27.680	0.133	0.041	
27.685	0.387	0.115	
27.690	0.730	0.205	
27.695	0.439	0.317	
27.700	0.215	0.398	
27.705	0.378	0.422	
27.710	0.117	0.406	
27.715	-0.128	0.345	
27.720	0.061	0.248	
27.725	0.091	0.159	
27.730	-0.183	0.088	
27.735	-0.143	0.018	
27.740	0.041	-0.040	
27.745	-0.156	-0.071	
27.750	-0.204	-0.095	
27.755	-0.009	-0.116	
27.760	-0.075	-0.118	
27.765	-0.226	-0.115	
27.770	-0.075	-0.121	
27.775	-0.037	-0.120	
27.780	-0.241	-0.115	
27.785	-0.180	-0.124	
27.790	-0.024	-0.134	
27.795	-0.194	-0.134	
27.800	-0.230	-0.139	
27.805	-0.008	-0.146	
27.810	-0.067	-0.137	
27.815	-0.200	-0.123	
27.820	-0.047	-0.117	
27.825	0.037	-0.105	
27.830	-0.177	-0.086	
27.835	-0.114	-0.081	
27.840	0.122	-0.077	
27.845	-0.060	-0.057	
27.850	-0.105	-0.042	
27.855	0.161	-0.031	
27.860	0.050	-0.008	
27.865	-0.120	0.011	
27.870	0.062	0.013	
27.875	0.130	0.017	
27.880	-0.107	0.026	
27.885	-0.015	0.021	
27.890	0.230	0.019	
27.895	-0.020	0.034	
27.900	-0.063	0.041	
27.905	0.229	0.041	
27.910	0.101	0.056	
27.915	-0.104	0.068	
27.920	0.163	0.064	
27.925	0.256	0.072	
27.930	-0.047	0.092	
27.935	0.058	0.095	
27.940	0.302	0.096	
27.945	0.032	0.111	
27.950	-0.050	0.112	
27.955	0.201	0.098	
27.960	0.014	0.090	
27.965	-0.172	0.072	
27.970	-0.024	0.034	
27.975	0.044	0.000	
27.980	-0.221	-0.023	
27.985	-0.221	-0.059	
27.990	-0.070	-0.100	
27.995	-0.244	-0.129	
28.000	-0.311	-0.160	
28.005	-0.160	-0.193	
28.010	-0.217	-0.213	
28.015	-0.331	-0.226	
28.020	-0.156	-0.238	
28.025	-0.052	-0.232	
28.030	-0.253	-0.210	
28.035	-0.210	-0.196	
28.040	-0.055	-0.187	
28.045	-0.201	-0.171	
28.050	-0.230	-0.164	
28.055	-0.023	-0.162	
28.060	-0.087	-0.148	
28.065	-0.204	-0.132	
28.070	-0.038	-0.124	
28.075	0.003	-0.111	
28.080	-0.221	-0.095	
28.085	-0.162	-0.098	
28.090	0.001	-0.106	
28.095	-0.177	-0.106	
28.100	-0.200	-0.112	
28.105	-0.009	-0.121	
28.110	-0.104	-0.118	
28.115	-0.233	-0.116	
28.120	-0.069	-0.123	
28.125	0.029	-0.119	
28.130	-0.166	-0.104	
28.135	-0.107	-0.096	
28.140	0.078	-0.088	
28.145	-0.119	-0.071	
28.150	-0.154	-0.065	
28.155	0.072	-0.066	
28.160	-0.066	-0.058	
28.165	-0.188	-0.054	
28.170	0.070	-0.060	
28.175	0.152	-0.047	
28.180	-0.102	-0.019	
28.185	-0.027	-0.006	
28.190	0.134	0.001	
28.195	-0.113	0.010	
28.200	-0.162	0.001	
28.205	0.056	-0.021	
28.210	-0.055	-0.033	
28.215	-0.213	-0.045	
28.220	-0.024	-0.066	
28.225	0.049	-0.074	
28.230	-0.171	-0.069	
28.235	-0.085	-0.071	
28.240	0.123	-0.069	
28.245	-0.107	-0.053	
28.250	-0.137	-0.046	
28.255	0.139	-0.045	
28.260	0.012	-0.029	
28.265	-0.160	-0.016	
28.270	0.091	-0.016	
28.275	0.190	-0.004	
28.280	-0.114	0.020	
28.285	-0.076	0.022	
28.290	0.117	0.012	
28.295	-0.127	0.007	
28.300	-0.149	-0.010	
28.305	0.088	-0.032	
28.310	-0.056	-0.039	
28.315	-0.186	-0.044	
28.320	0.000	-0.059	
28.325	0.082	-0.060	
28.330	-0.154	-0.049	
28.335	-0.056	-0.047	
28.340	0.172	-0.042	
28.345	-0.096	-0.023	
28.350	-0.133	-0.017	
28.355	0.169	-0.019	
28.360	0.064	-0.004	
28.365	-0.119	0.012	
28.370	0.065	0.013	
28.375	0.084	0.015	
28.380	-0.134	0.018	
28.385	-0.034	0.006	
28.390	0.165	-0.003	
28.395	-0.104	0.002	
28.400	-0.146	-0.004	
28.405	0.096	-0.021	
28.410	-0.058	-0.025	
28.415	-0.201	-0.033	
28.420	-0.026	-0.054	
28.425	0.058	-0.063	
28.430	-0.165	-0.059	
28.435	-0.047	-0.061	
28.440	0.203	-0.053	
28.445	-0.067	-0.026	
28.450	-0.111	-0.010	
28.455	0.166	-0.006	
28.460	0.027	0.009	
28.465	-0.157	0.017	
28.470	0.046	0.007	
28.475	0.139	0.004	
28.480	-0.130	0.011	
28.485	-0.038	0.005	
28.490	0.224	0.002	
28.495	-0.089	0.015	
28.500	-0.156	0.013	
28.505	0.085	-0.004	
28.510	-0.041	-0.013	
28.515	-0.183	-0.024	
28.520	0.037	-0.041	
28.525	0.105	-0.043	
