Vernier Format 2
reposo.txt 10/18/2025 9:1:2
Run 1
Time	Potential	EKG	
T	P	E	
s	mV	mV	

0.000	-0.294	-0.014	
0.005	0.136	-0.039	
0.010	0.675	-0.014	
0.015	-0.203	0.060	
0.020	-0.172	0.090	
0.025	0.625		
0.030	-0.027		
0.035	-0.355		
0.040	0.346		
0.045	0.226		
0.050	-0.404		
0.055	-0.055		
0.060	0.425		
0.065	-0.332		
0.070	-0.306		
0.075	0.370		
0.080	-0.175		
0.085	-0.457		
0.090	0.158		
0.095	0.131		
0.100	-0.436		
0.105	-0.079		
0.110	0.425		
0.115	-0.320		
0.120	-0.282		
0.125	0.460		
0.130	-0.108		
0.135	-0.404		
0.140	0.288		
0.145	0.247		
0.150	-0.378		
0.155	0.001		
0.160	0.564		
0.165	-0.253		
0.170	-0.213		
0.175	0.573		
0.180	-0.047		
0.185	-0.349		
0.190	0.413		
0.195	0.352		
0.200	-0.340		
0.205	0.070		
0.210	0.611		
0.215	-0.239		
0.220	-0.213		
0.225	0.613		
0.230	-0.018		
0.235	-0.332		
0.240	0.437		
0.245	0.376		
0.250	-0.328		
0.255	0.070		
0.260	0.611		
0.265	-0.241		
0.270	-0.198		
0.275	0.614		
0.280	-0.034		
0.285	-0.343		
0.290	0.422		
0.295	0.358		
0.300	-0.345		
0.305	0.079		
0.310	0.633		
0.315	-0.239		
0.320	-0.213		
0.325	0.596		
0.330	-0.063		
0.335	-0.355		
0.340	0.392		
0.345	0.341		
0.350	-0.343		
0.355	0.072		
0.360	0.617		
0.365	-0.226		
0.370	-0.206		
0.375	0.611		
0.380	-0.035		
0.385	-0.337		
0.390	0.427		
0.395	0.325		
0.400	-0.354		
0.405	0.053		
0.410	0.598		
0.415	-0.252		
0.420	-0.223		
0.425	0.588		
0.430	-0.031		
0.435	-0.334		
0.440	0.436		
0.445	0.349		
0.450	-0.346		
0.455	0.056		
0.460	0.623		
0.465	-0.229		
0.470	-0.195		
0.475	0.643		
0.480	-0.020		
0.485	-0.331		
0.490	0.447		
0.495	0.387		
0.500	-0.326		
0.505	0.126		
0.510	0.666		
0.515	-0.204		
0.520	-0.169		
0.525	0.662		
0.530	-0.006		
0.535	-0.345		
0.540	0.408		
0.545	0.306		
0.550	-0.361		
0.555	0.027		
0.560	0.550		
0.565	-0.270		
0.570	-0.238		
0.575	0.534		
0.580	-0.081		
0.585	-0.377		
0.590	0.334		
0.595	0.273		
0.600	-0.372		
0.605	0.050		
0.610	0.630		
0.615	-0.212		
0.620	-0.125		
0.625	0.875		
0.630	0.297		
0.635	-0.142		
0.640	0.689		
0.645	0.521		
0.650	-0.349		
0.655	-0.102		
0.660	0.253		
0.665	-0.435		
0.670	-0.381		
0.675	0.325		
0.680	-0.153		
0.685	-0.412		
0.690	0.311		
0.695	0.250		
0.700	-0.378		
0.705	0.027		
0.710	0.585		
0.715	-0.258		
0.720	-0.204		
0.725	0.614		
0.730	-0.031		
0.735	-0.331		
0.740	0.430		
0.745	0.360		
0.750	-0.334		
0.755	0.078		
0.760	0.627		
0.765	-0.236		
0.770	-0.198		
0.775	0.620		
0.780	-0.027		
0.785	-0.334		
0.790	0.444		
0.795	0.369		
0.800	-0.328		
0.805	0.102		
0.810	0.671		
0.815	-0.207		
0.820	-0.175		
0.825	0.668		
0.830	0.004		
0.835	-0.306		
0.840	0.503		
0.845	0.433		
0.850	-0.306		
0.855	0.123		
0.860	0.671		
0.865	-0.203		
0.870	-0.165		
0.875	0.674		
0.880	0.030		
0.885	-0.284		
0.890	0.538		
0.895	0.462		
0.900	-0.290		
0.905	0.154		
0.910	0.666		
0.915	-0.223		
0.920	-0.191		
0.925	0.602		
0.930	-0.069		
0.935	-0.386		
0.940	0.285		
0.945	0.181		
0.950	-0.435		
0.955	-0.095		
0.960	0.384		
0.965	-0.352		
0.970	-0.329		
0.975	0.386		
0.980	-0.166		
0.985	-0.442		
0.990	0.198		
0.995	0.154		
1.000	-0.427		
1.005	-0.058		
1.010	0.451		
1.015	-0.319		
1.020	-0.277		
1.025	0.463		
1.030	-0.110		
1.035	-0.389		
1.040	0.335		
1.045	0.268		
1.050	-0.378		
1.055	0.008		
1.060	0.543		
1.065	-0.273		
1.070	-0.217		
1.075	0.590		
1.080	-0.047		
1.085	-0.342		
1.090	0.442		
1.095	0.358		
1.100	-0.340		
1.105	0.091		
1.110	0.611		
1.115	-0.239		
1.120	-0.200		
1.125	0.602		
1.130	-0.038		
1.135	-0.332		
1.140	0.453		
1.145	0.364		
1.150	-0.332		
1.155	0.087		
1.160	0.608		
1.165	-0.247		
1.170	-0.210		
1.175	0.616		
1.180	-0.035		
1.185	-0.342		
1.190	0.428		
1.195	0.354		
1.200	-0.346		
1.205	0.079		
1.210	0.630		
1.215	-0.233		
1.220	-0.194		
1.225	0.622		
1.230	-0.031		
1.235	-0.335		
1.240	0.454		
1.245	0.380		
1.250	-0.326		
1.255	0.110		
1.260	0.665		
1.265	-0.227		
1.270	-0.177		
1.275	0.651		
1.280	-0.009		
1.285	-0.311		
1.290	0.498		
1.295	0.404		
1.300	-0.310		
1.305	0.139		
1.310	0.675		
1.315	-0.212		
1.320	-0.174		
1.325	0.602		
1.330	-0.063		
1.335	-0.363		
1.340	0.381		
1.345	0.244		
1.350	-0.384		
1.355	0.015		
1.360	0.541		
1.365	-0.282		
1.370	-0.232		
1.375	0.550		
1.380	-0.099		
1.385	-0.374		
1.390	0.392		
1.395	0.334		
1.400	-0.314		
1.405	0.198		
1.410	0.870		
1.415	-0.008		
1.420	0.075		
1.425	0.902		
1.430	0.087		
1.435	-0.354		
1.440	0.157		
1.445	-0.023		
1.450	-0.535		
1.455	-0.186		
1.460	0.259		
1.465	-0.354		
1.470	-0.265		
1.475	0.518		
1.480	-0.084		
1.485	-0.363		
1.490	0.395		
1.495	0.329		
1.500	-0.346		
1.505	0.078		
1.510	0.610		
1.515	-0.235		
1.520	-0.189		
1.525	0.622		
1.530	-0.027		
1.535	-0.329		
1.540	0.427		
1.545	0.351		
1.550	-0.334		
1.555	0.084		
1.560	0.623		
1.565	-0.224		
1.570	-0.178		
1.575	0.639		
1.580	-0.020		
1.585	-0.329		
1.590	0.442		
1.595	0.343		
1.600	-0.323		
1.605	0.114		
1.610	0.639		
1.615	-0.217		
1.620	-0.169		
1.625	0.666		
1.630	0.009		
1.635	-0.300		
1.640	0.498		
1.645	0.402		
1.650	-0.296		
1.655	0.180		
1.660	0.722		
1.665	-0.175		
1.670	-0.139		
1.675	0.713		
1.680	0.033		
1.685	-0.296		
1.690	0.477		
1.695	0.378		
1.700	-0.334		
1.705	0.068		
1.710	0.555		
1.715	-0.271		
1.720	-0.247		
1.725	0.468		
1.730	-0.148		
1.735	-0.451		
1.740	0.203		
1.745	0.131		
1.750	-0.441		
1.755	-0.069		
1.760	0.390		
1.765	-0.351		
1.770	-0.305		
1.775	0.408		
1.780	-0.154		
1.785	-0.428		
1.790	0.241		
1.795	0.160		
1.800	-0.418		
1.805	-0.023		
1.810	0.498		
1.815	-0.279		
1.820	-0.230		
1.825	0.555		
1.830	-0.070		
1.835	-0.377		
1.840	0.380		
1.845	0.317		
1.850	-0.337		
1.855	0.090		
1.860	0.587		
1.865	-0.242		
1.870	-0.180		
1.875	0.633		
1.880	-0.035		
1.885	-0.334		
1.890	0.431		
1.895	0.314		
1.900	-0.337		
1.905	0.097		
1.910	0.637		
1.915	-0.218		
1.920	-0.175		
1.925	0.631		
1.930	-0.043		
1.935	-0.329		
1.940	0.460		
1.945	0.367		
1.950	-0.339		
1.955	0.072		
1.960	0.613		
1.965	-0.230		
1.970	-0.174		
1.975	0.627		
1.980	-0.046		
1.985	-0.334		
1.990	0.437		
1.995	0.348		
2.000	-0.326		
2.005	0.091		
2.010	0.599		
2.015	-0.236		
2.020	-0.194		
2.025	0.617		
2.030	-0.050		
2.035	-0.337		
2.040	0.434		
2.045	0.348		
2.050	-0.331		
2.055	0.102		
2.060	0.598		
2.065	-0.250		
2.070	-0.203		
2.075	0.573		
2.080	-0.052		
2.085	-0.334		
2.090	0.424		
2.095	0.311		
2.100	-0.364		
2.105	0.058		
2.110	0.565		
2.115	-0.255		
2.120	-0.198		
2.125	0.605		
2.130	-0.056		
2.135	-0.339		
2.140	0.433		
2.145	0.346		
2.150	-0.328		
2.155	0.110		
2.160	0.622		
2.165	-0.230		
2.170	-0.166		
2.175	0.655		
2.180	-0.031		
2.185	-0.311		
2.190	0.466		
2.195	0.369		
2.200	-0.331		
2.205	0.056		
2.210	0.538		
2.215	-0.265		
2.220	-0.230		
2.225	0.495		
2.230	-0.096		
2.235	-0.364		
2.240	0.358		
2.245	0.238		
2.250	-0.387		
2.255	0.041		
2.260	0.543		
2.265	-0.277		
2.270	-0.207		
2.275	0.611		
2.280	-0.027		
2.285	-0.284		
2.290	0.643		
2.295	0.701		
2.300	-0.105		
2.305	0.434		
2.310	0.835		
2.315	-0.183		
2.320	-0.265		
2.325	0.287		
2.330	-0.262		
2.335	-0.521		
2.340	0.093		
2.345	0.091		
2.350	-0.421		
2.355	-0.023		
2.360	0.508		
2.365	-0.271		
2.370	-0.210		
2.375	0.552		
2.380	-0.069		
2.385	-0.345		
2.390	0.410		
2.395	0.328		
2.400	-0.335		
2.405	0.090		
2.410	0.599		
2.415	-0.236		
2.420	-0.178		
2.425	0.607		
2.430	-0.031		
2.435	-0.325		
2.440	0.439		
2.445	0.343		
2.450	-0.316		
2.455	0.136		
2.460	0.637		
2.465	-0.226		
2.470	-0.166		
2.475	0.645		
2.480	-0.027		
2.485	-0.317		
2.490	0.469		
2.495	0.381		
2.500	-0.310		
2.505	0.143		
2.510	0.643		
2.515	-0.210		
2.520	-0.145		
2.525	0.662		
2.530	0.004		
2.535	-0.297		
2.540	0.501		
2.545	0.401		
2.550	-0.288		
2.555	0.161		
2.560	0.662		
2.565	-0.206		
2.570	-0.149		
2.575	0.687		
2.580	0.001		
2.585	-0.314		
2.590	0.439		
2.595	0.312		
2.600	-0.372		
2.605	-0.005		
2.610	0.459		
2.615	-0.332		
2.620	-0.277		
2.625	0.422		
2.630	-0.166		
2.635	-0.453		
2.640	0.192		
2.645	0.082		
2.650	-0.451		
2.655	-0.081		
2.660	0.384		
2.665	-0.329		
2.670	-0.273		
2.675	0.445		
2.680	-0.143		
2.685	-0.406		
2.690	0.255		
2.695	0.177		
2.700	-0.401		
2.705	0.020		
2.710	0.529		
2.715	-0.271		
2.720	-0.227		
2.725	0.520		
2.730	-0.079		
2.735	-0.354		
2.740	0.402		
2.745	0.309		
2.750	-0.345		
2.755	0.090		
2.760	0.617		
2.765	-0.238		
2.770	-0.178		
2.775	0.599		
2.780	-0.052		
2.785	-0.331		
2.790	0.428		
2.795	0.326		
2.800	-0.339		
2.805	0.094		
2.810	0.608		
2.815	-0.233		
2.820	-0.180		
2.825	0.608		
2.830	-0.047		
2.835	-0.335		
2.840	0.442		
2.845	0.322		
2.850	-0.348		
2.855	0.067		
2.860	0.584		
2.865	-0.246		
2.870	-0.180		
2.875	0.633		
2.880	-0.032		
2.885	-0.331		
2.890	0.404		
2.895	0.308		
2.900	-0.346		
2.905	0.091		
2.910	0.587		
2.915	-0.249		
2.920	-0.197		
2.925	0.570		
2.930	-0.058		
2.935	-0.334		
2.940	0.428		
2.945	0.314		
2.950	-0.352		
2.955	0.088		
2.960	0.602		
2.965	-0.246		
2.970	-0.191		
2.975	0.611		
2.980	-0.049		
2.985	-0.339		
2.990	0.421		
2.995	0.332		
3.000	-0.331		
3.005	0.101		
3.010	0.559		
3.015	-0.242		
3.020	-0.182		
3.025	0.614		
3.030	-0.044		
3.035	-0.332		
3.040	0.425		
3.045	0.334		
3.050	-0.329		
3.055	0.105		
3.060	0.601		
3.065	-0.239		
3.070	-0.175		
3.075	0.620		
3.080	-0.026		
3.085	-0.316		
3.090	0.450		
3.095	0.360		
3.100	-0.316		
3.105	0.155		
3.110	0.662		
3.115	-0.203		
3.120	-0.139		
3.125	0.680		
3.130	-0.012		
3.135	-0.305		
3.140	0.463		
3.145	0.343		
3.150	-0.343		
3.155	0.041		
3.160	0.532		
3.165	-0.273		
3.170	-0.221		
3.175	0.524		
3.180	-0.114		
3.185	-0.369		
3.190	0.352		
3.195	0.250		
3.200	-0.363		
3.205	0.029		
3.210	0.530		
3.215	-0.261		
3.220	-0.178		
3.225	0.658		
3.230	0.078		
3.235	-0.186		
3.240	0.832		
3.245	0.713		
3.250	-0.198		
3.255	0.258		
3.260	0.550		
3.265	-0.377		
3.270	-0.395		
3.275	0.158		
3.280	-0.244		
3.285	-0.467		
3.290	0.203		
3.295	0.171		
3.300	-0.387		
3.305	0.012		
3.310	0.503		
3.315	-0.274		
3.320	-0.215		
3.325	0.546		
3.330	-0.078		
3.335	-0.348		
3.340	0.383		
3.345	0.293		
3.350	-0.354		
3.355	0.067		
3.360	0.547		
3.365	-0.246		
3.370	-0.178		
3.375	0.611		
3.380	-0.058		
3.385	-0.319		
3.390	0.444		
3.395	0.337		
3.400	-0.325		
3.405	0.117		
3.410	0.611		
3.415	-0.227		
3.420	-0.171		
3.425	0.617		
3.430	-0.026		
3.435	-0.306		
3.440	0.454		
3.445	0.351		
3.450	-0.305		
3.455	0.140		
3.460	0.660		
3.465	-0.195		
3.470	-0.140		
3.475	0.678		
3.480	0.011		
3.485	-0.274		
3.490	0.530		
3.495	0.416		
3.500	-0.293		
3.505	0.183		
3.510	0.671		
3.515	-0.192		
3.520	-0.128		
3.525	0.648		
3.530	-0.032		
3.535	-0.325		
3.540	0.408		
3.545	0.259		
3.550	-0.380		
3.555	-0.020		
3.560	0.431		
3.565	-0.325		
3.570	-0.277		
3.575	0.392		
3.580	-0.168		
3.585	-0.428		
3.590	0.207		
3.595	0.096		
3.600	-0.435		
3.605	-0.058		
3.610	0.393		
3.615	-0.310		
3.620	-0.253		
3.625	0.425		
3.630	-0.151		
3.635	-0.395		
3.640	0.302		
3.645	0.212		
3.650	-0.384		
3.655	0.008		
3.660	0.515		
3.665	-0.258		
3.670	-0.201		
3.675	0.555		
3.680	-0.070		
3.685	-0.339		
3.690	0.399		
3.695	0.311		
3.700	-0.335		
3.705	0.085		
3.710	0.579		
3.715	-0.232		
3.720	-0.172		
3.725	0.602		
3.730	-0.032		
3.735	-0.319		
3.740	0.424		
3.745	0.320		
3.750	-0.328		
3.755	0.093		
3.760	0.578		
3.765	-0.236		
3.770	-0.182		
3.775	0.610		
3.780	-0.041		
3.785	-0.325		
3.790	0.392		
3.795	0.287		
3.800	-0.343		
3.805	0.090		
3.810	0.596		
3.815	-0.226		
3.820	-0.178		
3.825	0.569		
3.830	-0.052		
3.835	-0.325		
3.840	0.425		
3.845	0.317		
3.850	-0.329		
3.855	0.087		
3.860	0.558		
3.865	-0.255		
3.870	-0.191		
3.875	0.590		
3.880	-0.050		
3.885	-0.329		
3.890	0.424		
3.895	0.314		
3.900	-0.334		
3.905	0.079		
3.910	0.582		
3.915	-0.242		
3.920	-0.186		
3.925	0.573		
3.930	-0.050		
3.935	-0.322		
3.940	0.424		
3.945	0.288		
3.950	-0.346		
3.955	0.065		
3.960	0.570		
3.965	-0.238		
3.970	-0.188		
3.975	0.585		
3.980	-0.052		
3.985	-0.323		
3.990	0.422		
3.995	0.315		
4.000	-0.331		
4.005	0.088		
4.010	0.584		
4.015	-0.242		
4.020	-0.191		
4.025	0.593		
4.030	-0.056		
4.035	-0.328		
4.040	0.419		
4.045	0.326		
4.050	-0.325		
4.055	0.125		
4.060	0.628		
4.065	-0.204		
4.070	-0.143		
4.075	0.662		
4.080	0.000		
4.085	-0.300		
4.090	0.416		
4.095	0.282		
4.100	-0.348		
4.105	0.032		
4.110	0.483		
4.115	-0.273		
4.120	-0.235		
4.125	0.480		
4.130	-0.101		
4.135	-0.361		
4.140	0.326		
4.145	0.209		
4.150	-0.366		
4.155	0.038		
4.160	0.544		
4.165	-0.239		
4.170	-0.163		
4.175	0.718		
4.180	0.134		
4.185	-0.145		
4.190	0.858		
4.195	0.678		
4.200	-0.213		
4.205	0.219		
4.210	0.433		
4.215	-0.396		
4.220	-0.387		
4.225	0.180		
4.230	-0.233		
4.235	-0.454		
4.240	0.255		
4.245	0.187		
4.250	-0.372		
4.255	0.035		
4.260	0.527		
4.265	-0.267		
4.270	-0.200		
4.275	0.567		
4.280	-0.058		
4.285	-0.331		
4.290	0.410		
4.295	0.319		
4.300	-0.332		
4.305	0.078		
4.310	0.572		
4.315	-0.236		
4.320	-0.174		
4.325	0.604		
4.330	-0.044		
4.335	-0.320		
4.340	0.447		
4.345	0.346		
4.350	-0.329		
4.355	0.111		
4.360	0.619		
4.365	-0.229		
4.370	-0.162		
4.375	0.630		
4.380	-0.038		
4.385	-0.314		
4.390	0.444		
4.395	0.346		
4.400	-0.313		
4.405	0.178		
4.410	0.669		
4.415	-0.206		
4.420	-0.143		
4.425	0.669		
4.430	0.012		
4.435	-0.276		
4.440	0.527		
4.445	0.410		
4.450	-0.290		
4.455	0.163		
4.460	0.636		
4.465	-0.207		
4.470	-0.153		
4.475	0.617		
4.480	-0.056		
4.485	-0.343		
4.490	0.355		
4.495	0.232		
4.500	-0.389		
4.505	-0.031		
4.510	0.402		
4.515	-0.342		
4.520	-0.296		
4.525	0.372		
4.530	-0.183		
4.535	-0.439		
4.540	0.194		
4.545	0.085		
4.550	-0.444		
4.555	-0.069		
4.560	0.405		
4.565	-0.323		
4.570	-0.271		
4.575	0.447		
4.580	-0.117		
4.585	-0.375		
4.590	0.325		
4.595	0.241		
4.600	-0.367		
4.605	0.020		
4.610	0.515		
4.615	-0.274		
4.620	-0.212		
4.625	0.558		
4.630	-0.050		
4.635	-0.331		
4.640	0.398		
4.645	0.315		
4.650	-0.325		
4.655	0.094		
4.660	0.614		
4.665	-0.226		
4.670	-0.168		
4.675	0.651		
4.680	-0.031		
4.685	-0.322		
4.690	0.439		
4.695	0.314		
4.700	-0.337		
4.705	0.082		
4.710	0.581		
4.715	-0.230		
4.720	-0.171		
4.725	0.602		
4.730	-0.050		
4.735	-0.339		
4.740	0.407		
4.745	0.323		
4.750	-0.329		
4.755	0.065		
4.760	0.579		
4.765	-0.235		
4.770	-0.180		
4.775	0.587		
4.780	-0.066		
4.785	-0.348		
4.790	0.408		
4.795	0.303		
4.800	-0.355		
4.805	0.050		
4.810	0.565		
4.815	-0.247		
4.820	-0.198		
4.825	0.584		
4.830	-0.061		
4.835	-0.339		
4.840	0.405		
4.845	0.302		
4.850	-0.349		
4.855	0.059		
4.860	0.562		
4.865	-0.249		
4.870	-0.201		
4.875	0.562		
4.880	-0.058		
4.885	-0.335		
4.890	0.393		
4.895	0.315		
4.900	-0.343		
4.905	0.068		
4.910	0.558		
4.915	-0.246		
4.920	-0.188		
4.925	0.593		
4.930	-0.046		
4.935	-0.340		
4.940	0.419		
4.945	0.326		
4.950	-0.337		
4.955	0.068		
4.960	0.593		
4.965	-0.235		
4.970	-0.191		
4.975	0.585		
4.980	-0.029		
4.985	-0.322		
4.990	0.410		
4.995	0.357		
5.000	-0.308		
5.005	0.119		
5.010	0.630		
5.015	-0.212		
5.020	-0.159		
5.025	0.648		
5.030	-0.018		
5.035	-0.308		
5.040	0.454		
5.045	0.331		
5.050	-0.352		
5.055	0.041		
5.060	0.508		
5.065	-0.291		
5.070	-0.238		
5.075	0.501		
5.080	-0.090		
5.085	-0.370		
5.090	0.358		
5.095	0.276		
5.100	-0.372		
5.105	0.026		
5.110	0.546		
5.115	-0.252		
5.120	-0.195		
5.125	0.671		
5.130	0.126		
5.135	-0.153		
5.140	0.848		
5.145	0.671		
5.150	-0.229		
5.155	0.189		
5.160	0.472		
5.165	-0.398		
5.170	-0.393		
5.175	0.186		
5.180	-0.235		
5.185	-0.456		
5.190	0.250		
5.195	0.209		
5.200	-0.378		
5.205	0.015		
5.210	0.549		
5.215	-0.250		
5.220	-0.194		
5.225	0.607		
5.230	-0.029		
5.235	-0.332		
5.240	0.457		
5.245	0.390		
5.250	-0.305		
5.255	0.143		
5.260	0.639		
5.265	-0.204		
5.270	-0.146		
5.275	0.669		
5.280	-0.005		
5.285	-0.297		
5.290	0.492		
5.295	0.407		
5.300	-0.305		
5.305	0.145		
5.310	0.671		
5.315	-0.200		
5.320	-0.162		
5.325	0.687		
5.330	0.041		
5.335	-0.274		
5.340	0.520		
5.345	0.451		
5.350	-0.277		
5.355	0.183		
5.360	0.733		
5.365	-0.156		
5.370	-0.117		
5.375	0.730		
5.380	0.068		
5.385	-0.262		
5.390	0.543		
5.395	0.468		
5.400	-0.261		
5.405	0.210		
5.410	0.687		
5.415	-0.180		
5.420	-0.131		
5.425	0.686		
5.430	0.009		
5.435	-0.305		
5.440	0.418		
5.445	0.302		
5.450	-0.364		
5.455	-0.005		
5.460	0.441		
5.465	-0.314		
5.470	-0.281		
5.475	0.404		
5.480	-0.157		
5.485	-0.424		
5.490	0.226		
5.495	0.130		
5.500	-0.430		
5.505	-0.082		
5.510	0.395		
5.515	-0.328		
5.520	-0.268		
5.525	0.445		
5.530	-0.133		
5.535	-0.398		
5.540	0.285		
5.545	0.223		
5.550	-0.390		
5.555	0.003		
5.560	0.538		
5.565	-0.267		
5.570	-0.210		
5.575	0.540		
5.580	-0.066		
5.585	-0.348		
5.590	0.363		
5.595	0.299		
5.600	-0.351		
5.605	0.046		
5.610	0.585		
5.615	-0.236		
5.620	-0.203		
5.625	0.552		
5.630	-0.052		
5.635	-0.339		
5.640	0.384		
5.645	0.297		
5.650	-0.328		
5.655	0.078		
5.660	0.594		
5.665	-0.247		
5.670	-0.218		
5.675	0.561		
5.680	-0.061		
5.685	-0.351		
5.690	0.366		
5.695	0.276		
5.700	-0.352		
5.705	0.037		
5.710	0.530		
5.715	-0.264		
5.720	-0.223		
5.725	0.550		
5.730	-0.058		
5.735	-0.349		
5.740	0.348		
5.745	0.294		
5.750	-0.348		
5.755	0.046		
5.760	0.578		
5.765	-0.242		
5.770	-0.209		
5.775	0.558		
5.780	-0.052		
5.785	-0.343		
5.790	0.398		
5.795	0.331		
5.800	-0.323		
5.805	0.088		
5.810	0.617		
5.815	-0.224		
5.820	-0.165		
5.825	0.663		
5.830	0.024		
5.835	-0.291		
5.840	0.489		
5.845	0.384		
5.850	-0.308		
5.855	0.113		
5.860	0.593		
5.865	-0.241		
5.870	-0.217		
5.875	0.515		
5.880	-0.075		
5.885	-0.361		
5.890	0.322		
5.895	0.277		
5.900	-0.355		
5.905	0.014		
5.910	0.558		
5.915	-0.253		
5.920	-0.213		
5.925	0.530		
5.930	-0.069		
5.935	-0.335		
5.940	0.469		
5.945	0.453		
5.950	-0.201		
5.955	0.479		
5.960	0.995		
5.965	-0.084		
5.970	-0.110		
5.975	0.556		
5.980	-0.185		
5.985	-0.517		
5.990	0.003		
5.995	-0.020		
6.000	-0.477		
6.005	-0.078		
6.010	0.453		
6.015	-0.274		
6.020	-0.220		
6.025	0.553		
6.030	-0.072		
6.035	-0.351		
6.040	0.386		
6.045	0.325		
6.050	-0.337		
6.055	0.082		
6.060	0.610		
6.065	-0.233		
6.070	-0.198		
6.075	0.588		
6.080	-0.043		
6.085	-0.325		
6.090	0.413		
6.095	0.335		
6.100	-0.314		
6.105	0.125		
6.110	0.627		
6.115	-0.217		
6.120	-0.174		
6.125	0.622		
6.130	-0.029		
6.135	-0.325		
6.140	0.448		
6.145	0.366		
6.150	-0.305		
6.155	0.137		
6.160	0.646		
6.165	-0.206		
6.170	-0.157		
6.175	0.675		
6.180	0.043		
6.185	-0.285		
6.190	0.498		
6.195	0.434		
6.200	-0.281		
6.205	0.165		
6.210	0.695		
6.215	-0.191		
6.220	-0.146		
6.225	0.687		
6.230	0.026		
6.235	-0.302		
6.240	0.450		
6.245	0.357		
6.250	-0.339		
6.255	0.038		
6.260	0.500		
6.265	-0.296		
6.270	-0.279		
6.275	0.389		
6.280	-0.168		
6.285	-0.448		
6.290	0.165		
6.295	0.082		
6.300	-0.456		
6.305	-0.110		
6.310	0.341		
6.315	-0.351		
6.320	-0.316		
6.325	0.338		
6.330	-0.168		
6.335	-0.422		
6.340	0.233		
6.345	0.194		
6.350	-0.396		
6.355	-0.029		
6.360	0.489		
6.365	-0.276		
6.370	-0.233		
6.375	0.530		
6.380	-0.078		
6.385	-0.374		
6.390	0.343		
6.395	0.300		
6.400	-0.335		
6.405	0.061		
6.410	0.590		
6.415	-0.227		
6.420	-0.203		
6.425	0.550		
6.430	-0.046		
6.435	-0.329		
6.440	0.415		
6.445	0.337		
6.450	-0.326		
6.455	0.079		
6.460	0.617		
6.465	-0.215		
6.470	-0.197		
6.475	0.565		
6.480	-0.044		
6.485	-0.332		
6.490	0.404		
6.495	0.335		
6.500	-0.331		
6.505	0.062		
6.510	0.573		
6.515	-0.239		
6.520	-0.206		
6.525	0.588		
6.530	-0.026		
6.535	-0.320		
6.540	0.436		
6.545	0.349		
6.550	-0.320		
6.555	0.079		
6.560	0.607		
6.565	-0.221		
6.570	-0.192		
6.575	0.590		
6.580	-0.029		
6.585	-0.328		
6.590	0.390		
6.595	0.337		
6.600	-0.320		
6.605	0.076		
6.610	0.599		
6.615	-0.230		
6.620	-0.207		
6.625	0.593		
6.630	-0.017		
6.635	-0.323		
6.640	0.410		
6.645	0.340		
6.650	-0.329		
6.655	0.062		
6.660	0.584		
6.665	-0.226		
6.670	-0.194		
6.675	0.579		
6.680	-0.041		
6.685	-0.337		
6.690	0.408		
6.695	0.360		
6.700	-0.311		
6.705	0.110		
6.710	0.625		
6.715	-0.217		
6.720	-0.172		
6.725	0.652		
6.730	0.008		
6.735	-0.316		
6.740	0.460		
6.745	0.399		
6.750	-0.310		
6.755	0.093		
6.760	0.617		
6.765	-0.230		
6.770	-0.212		
6.775	0.556		
6.780	-0.073		
6.785	-0.358		
6.790	0.348		
6.795	0.288		
6.800	-0.357		
6.805	-0.009		
6.810	0.512		
6.815	-0.261		
6.820	-0.226		
6.825	0.537		
6.830	-0.070		
6.835	-0.358		
6.840	0.375		
6.845	0.381		
6.850	-0.255		
6.855	0.366		
6.860	1.032		
6.865	0.000		
6.870	-0.063		
6.875	0.730		
6.880	-0.050		
6.885	-0.451		
6.890	0.009		
6.895	-0.035		
6.900	-0.500		
6.905	-0.128		
6.910	0.399		
6.915	-0.296		
6.920	-0.256		
6.925	0.495		
6.930	-0.076		
6.935	-0.363		
6.940	0.348		
6.945	0.300		
6.950	-0.349		
6.955	0.044		
6.960	0.569		
6.965	-0.244		
6.970	-0.203		
6.975	0.596		
6.980	-0.018		
6.985	-0.329		
6.990	0.405		
6.995	0.349		
7.000	-0.328		
7.005	0.099		
7.010	0.645		
7.015	-0.213		
7.020	-0.183		
7.025	0.617		
7.030	0.003		
7.035	-0.313		
7.040	0.431		
7.045	0.369		
7.050	-0.308		
7.055	0.110		
7.060	0.669		
7.065	-0.201		
7.070	-0.171		
7.075	0.640		
7.080	0.027		
7.085	-0.302		
7.090	0.472		
7.095	0.463		
7.100	-0.264		
7.105	0.148		
7.110	0.695		
7.115	-0.175		
7.120	-0.157		
7.125	0.651		
7.130	0.037		
7.135	-0.296		
7.140	0.465		
7.145	0.401		
7.150	-0.317		
7.155	0.058		
7.160	0.552		
7.165	-0.273		
7.170	-0.274		
7.175	0.457		
7.180	-0.116		
7.185	-0.419		
7.190	0.195		
7.195	0.122		
7.200	-0.441		
7.205	-0.111		
7.210	0.373		
7.215	-0.337		
7.220	-0.303		
7.225	0.378		
7.230	-0.143		
7.235	-0.428		
7.240	0.226		
7.245	0.207		
7.250	-0.399		
7.255	-0.053		
7.260	0.433		
7.265	-0.284		
7.270	-0.247		
7.275	0.503		
7.280	-0.060		
7.285	-0.358		
7.290	0.341		
7.295	0.315		
7.300	-0.342		
7.305	0.044		
7.310	0.576		
7.315	-0.242		
7.320	-0.207		
7.325	0.604		
7.330	-0.032		
7.335	-0.339		
7.340	0.395		
7.345	0.366		
7.350	-0.325		
7.355	0.044		
7.360	0.590		
7.365	-0.212		
7.370	-0.194		
7.375	0.584		
7.380	-0.029		
7.385	-0.328		
7.390	0.415		
7.395	0.383		
7.400	-0.316		
7.405	0.068		
7.410	0.619		
7.415	-0.212		
7.420	-0.209		
7.425	0.549		
7.430	-0.027		
7.435	-0.328		
7.440	0.430		
7.445	0.369		
7.450	-0.339		
7.455	0.035		
7.460	0.594		
7.465	-0.221		
7.470	-0.188		
7.475	0.608		
7.480	-0.014		
7.485	-0.332		
7.490	0.376		
7.495	0.358		
7.500	-0.331		
7.505	0.047		
7.510	0.587		
7.515	-0.227		
7.520	-0.201		
7.525	0.579		
7.530	-0.027		
7.535	-0.348		
7.540	0.346		
7.545	0.326		
7.550	-0.340		
7.555	0.038		
7.560	0.588		
7.565	-0.215		
7.570	-0.200		
7.575	0.579		
7.580	-0.015		
7.585	-0.331		
7.590	0.376		
7.595	0.348		
7.600	-0.325		
7.605	0.043		
7.610	0.579		
7.615	-0.207		
7.620	-0.204		
7.625	0.549		
7.630	-0.035		
7.635	-0.337		
7.640	0.390		
7.645	0.343		
7.650	-0.320		
7.655	0.061		
7.660	0.601		
7.665	-0.215		
7.670	-0.207		
7.675	0.567		
7.680	-0.005		
7.685	-0.319		
7.690	0.390		
7.695	0.370		
7.700	-0.311		
7.705	0.059		
7.710	0.585		
7.715	-0.213		
7.720	-0.185		
7.725	0.630		
7.730	0.041		
7.735	-0.294		
7.740	0.459		
7.745	0.437		
7.750	-0.282		
7.755	0.084		
7.760	0.625		
7.765	-0.223		
7.770	-0.226		
7.775	0.520		
7.780	-0.081		
7.785	-0.380		
7.790	0.296		
7.795	0.282		
7.800	-0.355		
7.805	-0.005		
7.810	0.529		
7.815	-0.238		
7.820	-0.241		
7.825	0.501		
7.830	-0.046		
7.835	-0.331		
7.840	0.425		
7.845	0.501		
7.850	-0.191		
7.855	0.416		
7.860	0.992		
7.865	-0.069		
7.870	-0.108		
7.875	0.575		
7.880	-0.146		
7.885	-0.506		
7.890	-0.024		
7.895	-0.021		
7.900	-0.482		
7.905	-0.125		
7.910	0.407		
7.915	-0.276		
7.920	-0.255		
7.925	0.476		
7.930	-0.075		
7.935	-0.366		
7.940	0.319		
7.945	0.320		
7.950	-0.346		
7.955	-0.002		
7.960	0.564		
7.965	-0.218		
7.970	-0.217		
7.975	0.569		
7.980	-0.011		
7.985	-0.339		
7.990	0.341		
7.995	0.358		
8.000	-0.322		
8.005	0.056		
8.010	0.633		
8.015	-0.212		
8.020	-0.212		
8.025	0.576		
8.030	0.004		
8.035	-0.316		
8.040	0.427		
8.045	0.413		
8.050	-0.293		
8.055	0.096		
8.060	0.669		
8.065	-0.185		
8.070	-0.172		
8.075	0.649		
8.080	0.027		
8.085	-0.297		
8.090	0.474		
8.095	0.495		
8.100	-0.259		
8.105	0.123		
8.110	0.687		
8.115	-0.154		
8.120	-0.151		
8.125	0.671		
8.130	0.067		
8.135	-0.294		
8.140	0.451		
8.145	0.427		
8.150	-0.325		
8.155	0.015		
8.160	0.538		
8.165	-0.258		
8.170	-0.268		
8.175	0.436		
8.180	-0.124		
8.185	-0.435		
8.190	0.160		
8.195	0.161		
8.200	-0.436		
8.205	-0.114		
8.210	0.395		
8.215	-0.322		
8.220	-0.316		
8.225	0.381		
8.230	-0.125		
8.235	-0.422		
8.240	0.233		
8.245	0.239		
8.250	-0.383		
8.255	-0.049		
8.260	0.485		
8.265	-0.261		
8.270	-0.246		
8.275	0.523		
8.280	-0.012		
8.285	-0.335		
8.290	0.349		
8.295	0.373		
8.300	-0.319		
8.305	0.037		
8.310	0.628		
8.315	-0.201		
8.320	-0.206		
8.325	0.601		
8.330	0.011		
8.335	-0.326		
8.340	0.407		
8.345	0.412		
8.350	-0.310		
8.355	0.067		
8.360	0.660		
8.365	-0.198		
8.370	-0.201		
8.375	0.576		
8.380	0.017		
8.385	-0.326		
8.390	0.392		
8.395	0.389		
8.400	-0.323		
8.405	0.015		
8.410	0.588		
8.415	-0.232		
8.420	-0.230		
8.425	0.553		
8.430	-0.012		
8.435	-0.345		
8.440	0.346		
8.445	0.370		
8.450	-0.332		
8.455	0.012		
8.460	0.599		
8.465	-0.236		
8.470	-0.241		
8.475	0.549		
8.480	-0.018		
8.485	-0.342		
8.490	0.366		
8.495	0.352		
8.500	-0.340		
8.505	-0.018		
8.510	0.553		
8.515	-0.223		
8.520	-0.221		
8.525	0.559		
8.530	-0.005		
8.535	-0.343		
8.540	0.360		
8.545	0.366		
8.550	-0.335		
8.555	0.014		
8.560	0.585		
8.565	-0.221		
8.570	-0.227		
8.575	0.572		
8.580	-0.005		
8.585	-0.351		
8.590	0.349		
8.595	0.366		
8.600	-0.334		
8.605	0.012		
8.610	0.601		
8.615	-0.218		
8.620	-0.227		
8.625	0.572		
8.630	0.014		
8.635	-0.329		
8.640	0.407		
8.645	0.422		
8.650	-0.305		
8.655	0.026		
8.660	0.630		
8.665	-0.195		
8.670	-0.192		
8.675	0.630		
8.680	0.061		
8.685	-0.320		
8.690	0.387		
8.695	0.395		
8.700	-0.335		
8.705	0.000		
8.710	0.562		
8.715	-0.238		
8.720	-0.255		
8.725	0.517		
8.730	-0.043		
8.735	-0.375		
8.740	0.297		
8.745	0.338		
8.750	-0.348		
8.755	-0.015		
8.760	0.559		
8.765	-0.223		
8.770	-0.201		
8.775	0.642		
8.780	0.184		
8.785	-0.178		
8.790	0.809		
8.795	0.835		
8.800	-0.157		
8.805	0.192		
8.810	0.569		
8.815	-0.335		
8.820	-0.407		
8.825	0.175		
8.830	-0.197		
8.835	-0.476		
8.840	0.161		
8.845	0.265		
8.850	-0.363		
8.855	-0.035		
8.860	0.558		
8.865	-0.227		
8.870	-0.244		
8.875	0.514		
8.880	-0.008		
8.885	-0.346		
8.890	0.390		
8.895	0.430		
8.900	-0.303		
8.905	0.050		
8.910	0.625		
8.915	-0.198		
8.920	-0.218		
8.925	0.587		
8.930	0.020		
8.935	-0.335		
8.940	0.373		
8.945	0.412		
8.950	-0.311		
8.955	0.021		
8.960	0.646		
8.965	-0.194		
8.970	-0.215		
8.975	0.607		
8.980	0.038		
8.985	-0.335		
8.990	0.393		
8.995	0.460		
9.000	-0.285		
9.005	0.064		
9.010	0.655		
9.015	-0.166		
9.020	-0.180		
9.025	0.662		
9.030	0.101		
9.035	-0.305		
9.040	0.436		
9.045	0.471		
9.050	-0.285		
9.055	0.062		
9.060	0.707		
9.065	-0.168		
9.070	-0.194		
9.075	0.628		
9.080	0.049		
9.085	-0.337		
9.090	0.338		
9.095	0.338		
9.100	-0.378		
9.105	-0.096		
9.110	0.441		
9.115	-0.299		
9.120	-0.335		
9.125	0.326		
9.130	-0.151		
9.135	-0.470		
9.140	0.108		
9.145	0.146		
9.150	-0.444		
9.155	-0.137		
9.160	0.404		
9.165	-0.313		
9.170	-0.332		
9.175	0.376		
9.180	-0.099		
9.185	-0.424		
9.190	0.209		
9.195	0.261		
9.200	-0.386		
9.205	-0.075		
9.210	0.508		
9.215	-0.262		
9.220	-0.284		
9.225	0.480		
9.230	-0.041		
9.235	-0.387		
9.240	0.256		
9.245	0.325		
9.250	-0.351		
9.255	-0.029		
9.260	0.579		
9.265	-0.220		
9.270	-0.249		
9.275	0.562		
9.280	0.015		
9.285	-0.348		
9.290	0.348		
9.295	0.424		
9.300	-0.320		
9.305	-0.015		
9.310	0.614		
9.315	-0.206		
9.320	-0.244		
9.325	0.550		
9.330	0.032		
9.335	-0.337		
9.340	0.399		
9.345	0.488		
9.350	-0.285		
9.355	0.081		
9.360	0.698		
9.365	-0.171		
9.370	-0.188		
9.375	0.687		
9.380	0.157		
9.385	-0.282		
9.390	0.460		
9.395	0.523		
9.400	-0.270		
9.405	0.087		
9.410	0.726		
9.415	-0.134		
9.420	-0.166		
9.425	0.703		
9.430	0.148		
9.435	-0.276		
9.440	0.488		
9.445	0.564		
9.450	-0.232		
9.455	0.157		
9.460	0.761		
9.465	-0.139		
9.470	-0.163		
9.475	0.716		
9.480	0.168		
9.485	-0.262		
9.490	0.517		
9.495	0.526		
9.500	-0.264		
9.505	0.070		
9.510	0.636		
9.515	-0.198		
9.520	-0.246		
9.525	0.505		
9.530	-0.041		
9.535	-0.387		
9.540	0.258		
9.545	0.291		
9.550	-0.386		
9.555	-0.087		
9.560	0.477		
9.565	-0.270		
9.570	-0.314		
9.575	0.408		
9.580	-0.064		
9.585	-0.395		
9.590	0.291		
9.595	0.451		
9.600	-0.227		
9.605	0.285		
9.610	0.877		
9.615	-0.142		
9.620	-0.258		
9.625	0.335		
9.630	-0.220		
9.635	-0.584		
9.640	-0.096		
9.645	-0.038		
9.650	-0.515		
9.655	-0.192		
9.660	0.372		
9.665	-0.299		
9.670	-0.320		
9.675	0.421		
9.680	-0.047		
9.685	-0.387		
9.690	0.264		
9.695	0.329		
9.700	-0.363		
9.705	-0.061		
9.710	0.541		
9.715	-0.227		
9.720	-0.262		
9.725	0.527		
9.730	0.003		
9.735	-0.361		
9.740	0.326		
9.745	0.413		
9.750	-0.317		
9.755	-0.006		
9.760	0.652		
9.765	-0.163		
9.770	-0.218		
9.775	0.590		
9.780	0.081		
9.785	-0.325		
9.790	0.375		
9.795	0.441		
9.800	-0.293		
9.805	0.044		
9.810	0.694		
9.815	-0.162		
9.820	-0.204		
9.825	0.652		
9.830	0.122		
9.835	-0.291		
9.840	0.450		
9.845	0.521		
9.850	-0.258		
9.855	0.076		
9.860	0.713		
9.865	-0.139		
9.870	-0.183		
9.875	0.657		
9.880	0.117		
9.885	-0.300		
9.890	0.415		
9.895	0.463		
9.900	-0.317		
9.905	-0.032		
9.910	0.558		
9.915	-0.252		
9.920	-0.314		
9.925	0.398		
9.930	-0.082		
9.935	-0.438		
9.940	0.130		
9.945	0.181		
9.950	-0.427		
9.955	-0.136		
9.960	0.419		
9.965	-0.300		
9.970	-0.349		
9.975	0.375		
9.980	-0.079		
9.985	-0.422		
9.990	0.190		
9.995	0.302		
10.000	-0.375		
10.005	-0.098		
10.010	0.489		
10.015	-0.233		
10.020	-0.277		
10.025	0.474		
10.030	0.015		
10.035	-0.357		
10.040	0.309		
10.045	0.425		
10.050	-0.328		
10.055	-0.027		
10.060	0.619		
10.065	-0.185		
10.070	-0.232		
10.075	0.556		
10.080	0.070		
10.085	-0.311		
10.090	0.383		
10.095	0.474		
10.100	-0.285		
10.105	0.021		
10.110	0.657		
10.115	-0.162		
10.120	-0.217		
10.125	0.617		
10.130	0.105		
10.135	-0.313		
10.140	0.361		
10.145	0.448		
10.150	-0.296		
10.155	0.017		
10.160	0.648		
10.165	-0.168		
10.170	-0.227		
10.175	0.593		
10.180	0.107		
10.185	-0.317		
10.190	0.380		
10.195	0.462		
10.200	-0.296		
10.205	0.001		
10.210	0.662		
10.215	-0.159		
10.220	-0.226		
10.225	0.604		
10.230	0.108		
10.235	-0.305		
10.240	0.384		
10.245	0.474		
10.250	-0.273		
10.255	0.038		
10.260	0.704		
10.265	-0.128		
10.270	-0.182		
10.275	0.660		
10.280	0.137		
10.285	-0.310		
10.290	0.351		
10.295	0.433		
10.300	-0.325		
10.305	-0.040		
10.310	0.576		
10.315	-0.215		
10.320	-0.261		
10.325	0.529		
10.330	0.015		
10.335	-0.358		
10.340	0.280		
10.345	0.407		
10.350	-0.317		
10.355	-0.015		
10.360	0.645		
10.365	-0.156		
10.370	-0.194		
10.375	0.779		
10.380	0.421		
10.385	-0.096		
10.390	0.741		
10.395	0.678		
10.400	-0.238		
10.405	-0.055		
10.410	0.357		
10.415	-0.360		
10.420	-0.442		
10.425	0.218		
10.430	-0.122		
10.435	-0.432		
10.440	0.197		
10.445	0.344		
10.450	-0.346		
10.455	-0.063		
10.460	0.558		
10.465	-0.221		
10.470	-0.265		
10.475	0.506		
10.480	0.001		
10.485	-0.348		
10.490	0.317		
10.495	0.433		
10.500	-0.308		
10.505	-0.024		
10.510	0.604		
10.515	-0.198		
10.520	-0.252		
10.525	0.550		
10.530	0.062		
10.535	-0.340		
10.540	0.305		
10.545	0.428		
10.550	-0.314		
10.555	-0.043		
10.560	0.605		
10.565	-0.178		
10.570	-0.230		
10.575	0.582		
10.580	0.084		
10.585	-0.326		
10.590	0.380		
10.595	0.497		
10.600	-0.281		
10.605	0.008		
10.610	0.675		
10.615	-0.140		
10.620	-0.209		
10.625	0.575		
10.630	0.087		
10.635	-0.299		
10.640	0.408		
10.645	0.515		
10.650	-0.262		
10.655	0.032		
10.660	0.669		
10.665	-0.146		
10.670	-0.226		
10.675	0.553		
10.680	0.040		
10.685	-0.377		
10.690	0.198		
10.695	0.288		
10.700	-0.390		
10.705	-0.166		
10.710	0.311		
10.715	-0.322		
10.720	-0.374		
10.725	0.287		
10.730	-0.098		
10.735	-0.467		
10.740	0.075		
10.745	0.224		
10.750	-0.410		
10.755	-0.153		
10.760	0.441		
10.765	-0.247		
10.770	-0.319		
10.775	0.389		
10.780	-0.050		
10.785	-0.413		
10.790	0.206		
10.795	0.357		
10.800	-0.363		
10.805	-0.095		
10.810	0.549		
10.815	-0.201		
10.820	-0.287		
10.825	0.488		
10.830	0.052		
10.835	-0.348		
10.840	0.306		
10.845	0.445		
10.850	-0.300		
10.855	-0.037		
10.860	0.605		
10.865	-0.175		
10.870	-0.249		
10.875	0.546		
10.880	0.076		
10.885	-0.331		
10.890	0.311		
10.895	0.436		
10.900	-0.314		
10.905	-0.043		
10.910	0.620		
10.915	-0.166		
10.920	-0.261		
10.925	0.529		
10.930	0.099		
10.935	-0.340		
10.940	0.305		
10.945	0.447		
10.950	-0.305		
10.955	-0.052		
10.960	0.625		
10.965	-0.168		
10.970	-0.249		
10.975	0.538		
10.980	0.101		
10.985	-0.334		
10.990	0.273		
10.995	0.437		
11.000	-0.296		
11.005	-0.041		
11.010	0.611		
11.015	-0.172		
11.020	-0.265		
11.025	0.489		
11.030	0.072		
11.035	-0.340		
11.040	0.294		
11.045	0.454		
11.050	-0.302		
11.055	-0.049		
11.060	0.594		
11.065	-0.183		
11.070	-0.270		
11.075	0.512		
11.080	0.072		
11.085	-0.337		
11.090	0.280		
11.095	0.441		
11.100	-0.305		
11.105	-0.072		
11.110	0.556		
11.115	-0.174		
11.120	-0.249		
11.125	0.543		
11.130	0.088		
11.135	-0.343		
11.140	0.262		
11.145	0.413		
11.150	-0.311		
11.155	-0.058		
11.160	0.607		
11.165	-0.178		
11.170	-0.277		
11.175	0.506		
11.180	0.084		
11.185	-0.332		
11.190	0.297		
11.195	0.457		
11.200	-0.308		
11.205	-0.066		
11.210	0.587		
11.215	-0.174		
11.220	-0.264		
11.225	0.526		
11.230	0.085		
11.235	-0.345		
11.240	0.297		
11.245	0.472		
11.250	-0.294		
11.255	-0.049		
11.260	0.611		
11.265	-0.148		
11.270	-0.238		
11.275	0.584		
11.280	0.134		
11.285	-0.320		
11.290	0.291		
11.295	0.465		
11.300	-0.297		
11.305	-0.076		
11.310	0.549		
11.315	-0.204		
11.320	-0.303		
11.325	0.444		
11.330	0.021		
11.335	-0.381		
11.340	0.183		
11.345	0.363		
11.350	-0.339		
11.355	-0.085		
11.360	0.553		
11.365	-0.203		
11.370	-0.271		
11.375	0.549		
11.380	0.209		
11.385	-0.206		
11.390	0.686		
11.395	0.887		
11.400	-0.139		
11.405	0.091		
11.410	0.660		
11.415	-0.252		
11.420	-0.433		
11.425	0.094		
11.430	-0.177		
11.435	-0.497		
11.440	0.062		
11.445	0.317		
11.450	-0.355		
11.455	-0.133		
11.460	0.497		
11.465	-0.207		
11.470	-0.306		
11.475	0.497		
11.480	0.090		
11.485	-0.355		
11.490	0.241		
11.495	0.431		
11.500	-0.302		
11.505	-0.066		
11.510	0.601		
11.515	-0.160		
11.520	-0.268		
11.525	0.505		
11.530	0.111		
11.535	-0.325		
11.540	0.314		
11.545	0.501		
11.550	-0.285		
11.555	-0.047		
11.560	0.648		
11.565	-0.128		
11.570	-0.230		
11.575	0.611		
11.580	0.189		
11.585	-0.308		
11.590	0.361		
11.595	0.552		
11.600	-0.249		
11.605	-0.012		
11.610	0.700		
11.615	-0.099		
11.620	-0.213		
11.625	0.642		
11.630	0.215		
11.635	-0.293		
11.640	0.390		
11.645	0.598		
11.650	-0.238		
11.655	0.017		
11.660	0.747		
11.665	-0.084		
11.670	-0.203		
11.675	0.651		
11.680	0.212		
11.685	-0.317		
11.690	0.282		
11.695	0.454		
11.700	-0.329		
11.705	-0.137		
11.710	0.488		
11.715	-0.233		
11.720	-0.364		
11.725	0.355		
11.730	-0.034		
11.735	-0.445		
11.740	0.072		
11.745	0.285		
11.750	-0.396		
11.755	-0.175		
11.760	0.457		
11.765	-0.252		
11.770	-0.364		
11.775	0.380		
11.780	0.012		
11.785	-0.412		
11.790	0.148		
11.795	0.393		
11.800	-0.346		
11.805	-0.113		
11.810	0.579		
11.815	-0.177		
11.820	-0.305		
11.825	0.500		
11.830	0.126		
11.835	-0.351		
11.840	0.285		
11.845	0.521		
11.850	-0.296		
11.855	-0.085		
11.860	0.652		
11.865	-0.142		
11.870	-0.265		
11.875	0.567		
11.880	0.161		
11.885	-0.343		
11.890	0.282		
11.895	0.509		
11.900	-0.300		
11.905	-0.075		
11.910	0.648		
11.915	-0.151		
11.920	-0.279		
11.925	0.544		
11.930	0.119		
11.935	-0.366		
11.940	0.270		
11.945	0.517		
11.950	-0.305		
11.955	-0.087		
11.960	0.654		
11.965	-0.145		
11.970	-0.285		
11.975	0.534		
11.980	0.140		
11.985	-0.361		
11.990	0.241		
11.995	0.497		
12.000	-0.308		
12.005	-0.084		
12.010	0.634		
12.015	-0.137		
12.020	-0.284		
12.025	0.523		
12.030	0.146		
12.035	-0.369		
12.040	0.264		
12.045	0.518		
12.050	-0.297		
12.055	-0.087		
12.060	0.654		
12.065	-0.153		
12.070	-0.296		
12.075	0.514		
12.080	0.128		
12.085	-0.360		
12.090	0.259		
12.095	0.552		
12.100	-0.288		
12.105	-0.058		
12.110	0.703		
12.115	-0.107		
12.120	-0.262		
12.125	0.590		
12.130	0.194		
12.135	-0.352		
12.140	0.315		
12.145	0.602		
12.150	-0.267		
12.155	-0.061		
12.160	0.683		
12.165	-0.153		
12.170	-0.314		
12.175	0.477		
12.180	0.059		
12.185	-0.415		
12.190	0.166		
12.195	0.425		
12.200	-0.352		
12.205	-0.142		
12.210	0.555		
12.215	-0.201		
12.220	-0.346		
12.225	0.462		
12.230	0.091		
12.235	-0.392		
12.240	0.201		
12.245	0.523		
12.250	-0.279		
12.255	0.000		
12.260	0.956		
12.265	0.155		
12.270	-0.105		
12.275	0.788		
12.280	0.267		
12.285	-0.425		
12.290	-0.044		
12.295	0.114		
12.300	-0.503		
12.305	-0.290		
12.310	0.381		
12.315	-0.247		
12.320	-0.364		
12.325	0.439		
12.330	0.081		
12.335	-0.401		
12.340	0.194		
12.345	0.491		
12.350	-0.316		
12.355	-0.110		
12.360	0.639		
12.365	-0.148		
12.370	-0.308		
12.375	0.555		
12.380	0.194		
12.385	-0.357		
12.390	0.261		
12.395	0.573		
12.400	-0.288		
12.405	-0.084		
12.410	0.675		
12.415	-0.128		
12.420	-0.294		
12.425	0.567		
12.430	0.213		
12.435	-0.349		
12.440	0.274		
12.445	0.570		
12.450	-0.287		
12.455	-0.104		
12.460	0.694		
12.465	-0.099		
12.470	-0.265		
12.475	0.623		
12.480	0.244		
12.485	-0.325		
12.490	0.315		
12.495	0.619		
12.500	-0.246		
12.505	-0.046		
12.510	0.753		
12.515	-0.076		
12.520	-0.252		
12.525	0.637		
12.530	0.273		
12.535	-0.319		
12.540	0.328		
12.545	0.619		
12.550	-0.282		
12.555	-0.099		
12.560	0.640		
12.565	-0.169		
12.570	-0.352		
12.575	0.415		
12.580	0.035		
12.585	-0.457		
12.590	0.050		
12.595	0.322		
12.600	-0.413		
12.605	-0.242		
12.610	0.399		
12.615	-0.265		
12.620	-0.418		
12.625	0.337		
12.630	0.015		
12.635	-0.459		
12.640	0.047		
12.645	0.341		
12.650	-0.375		
12.655	-0.183		
12.660	0.527		
12.665	-0.210		
12.670	-0.352		
12.675	0.445		
12.680	0.099		
12.685	-0.407		
12.690	0.168		
12.695	0.474		
12.700	-0.345		
12.705	-0.145		
12.710	0.610		
12.715	-0.157		
12.720	-0.326		
12.725	0.508		
12.730	0.158		
12.735	-0.378		
12.740	0.218		
12.745	0.570		
12.750	-0.296		
12.755	-0.114		
12.760	0.652		
12.765	-0.148		
12.770	-0.328		
12.775	0.500		
12.780	0.192		
12.785	-0.372		
12.790	0.195		
12.795	0.535		
12.800	-0.311		
12.805	-0.124		
12.810	0.669		
12.815	-0.139		
12.820	-0.343		
12.825	0.530		
12.830	0.229		
12.835	-0.351		
12.840	0.267		
12.845	0.591		
12.850	-0.279		
12.855	-0.093		
12.860	0.715		
12.865	-0.105		
12.870	-0.282		
12.875	0.607		
12.880	0.283		
12.885	-0.319		
12.890	0.320		
12.895	0.619		
12.900	-0.281		
12.905	-0.125		
12.910	0.662		
12.915	-0.140		
12.920	-0.325		
12.925	0.489		
12.930	0.134		
12.935	-0.406		
12.940	0.146		
12.945	0.488		
12.950	-0.332		
12.955	-0.151		
12.960	0.607		
12.965	-0.165		
12.970	-0.326		
12.975	0.511		
12.980	0.210		
12.985	-0.351		
12.990	0.340		
12.995	0.817		
13.000	-0.073		
13.005	0.215		
13.010	0.951		
13.015	-0.032		
13.020	-0.337		
13.025	0.287		
13.030	-0.072		
13.035	-0.549		
13.040	-0.075		
13.045	0.294		
13.050	-0.378		
13.055	-0.186		
13.060	0.607		
13.065	-0.153		
13.070	-0.335		
13.075	0.521		
13.080	0.233		
13.085	-0.354		
13.090	0.236		
13.095	0.602		
13.100	-0.274		
13.105	-0.111		
13.110	0.700		
13.115	-0.099		
13.120	-0.306		
13.125	0.532		
13.130	0.230		
13.135	-0.357		
13.140	0.230		
13.145	0.590		
13.150	-0.277		
13.155	-0.110		
13.160	0.712		
13.165	-0.093		
13.170	-0.297		
13.175	0.555		
13.180	0.264		
13.185	-0.343		
13.190	0.276		
13.195	0.607		
13.200	-0.268		
13.205	-0.085		
13.210	0.726		
13.215	-0.081		
13.220	-0.279		
13.225	0.607		
13.230	0.322		
13.235	-0.305		
13.240	0.354		
13.245	0.715		
13.250	-0.238		
13.255	-0.070		
13.260	0.765		
13.265	-0.060		
13.270	-0.267		
13.275	0.628		
13.280	0.308		
13.285	-0.337		
13.290	0.215		
13.295	0.483		
13.300	-0.337		
13.305	-0.186		
13.310	0.512		
13.315	-0.221		
13.320	-0.425		
13.325	0.287		
13.330	0.008		
13.335	-0.486		
13.340	0.004		
13.345	0.360		
13.350	-0.395		
13.355	-0.241		
13.360	0.457		
13.365	-0.221		
13.370	-0.424		
13.375	0.346		
13.380	0.049		
13.385	-0.451		
13.390	0.068		
13.395	0.441		
13.400	-0.364		
13.405	-0.204		
13.410	0.565		
13.415	-0.168		
13.420	-0.355		
13.425	0.465		
13.430	0.186		
13.435	-0.386		
13.440	0.146		
13.445	0.520		
13.450	-0.310		
13.455	-0.149		
13.460	0.657		
13.465	-0.131		
13.470	-0.342		
13.475	0.500		
13.480	0.212		
13.485	-0.389		
13.490	0.200		
13.495	0.594		
13.500	-0.293		
13.505	-0.134		
13.510	0.651		
13.515	-0.137		
13.520	-0.331		
13.525	0.527		
13.530	0.236		
13.535	-0.393		
13.540	0.149		
13.545	0.562		
13.550	-0.308		
13.555	-0.157		
13.560	0.640		
13.565	-0.145		
13.570	-0.366		
13.575	0.454		
13.580	0.178		
13.585	-0.406		
13.590	0.133		
13.595	0.537		
13.600	-0.322		
13.605	-0.166		
13.610	0.639		
13.615	-0.139		
13.620	-0.339		
13.625	0.547		
13.630	0.261		
13.635	-0.375		
13.640	0.198		
13.645	0.587		
13.650	-0.305		
13.655	-0.156		
13.660	0.668		
13.665	-0.098		
13.670	-0.310		
13.675	0.607		
13.680	0.329		
13.685	-0.342		
13.690	0.276		
13.695	0.703		
13.700	-0.238		
13.705	-0.064		
13.710	0.831		
13.715	-0.034		
13.720	-0.293		
13.725	0.578		
13.730	0.276		
13.735	-0.364		
13.740	0.204		
13.745	0.605		
13.750	-0.293		
13.755	-0.153		
13.760	0.680		
13.765	-0.105		
13.770	-0.337		
13.775	0.524		
13.780	0.264		
13.785	-0.381		
13.790	0.183		
13.795	0.604		
13.800	-0.294		
13.805	-0.116		
13.810	0.832		
13.815	0.099		
13.820	-0.124		
13.825	1.027		
13.830	0.666		
13.835	-0.232		
13.840	0.375		
13.845	0.584		
13.850	-0.398		
13.855	-0.306		
13.860	0.376		
13.865	-0.236		
13.870	-0.416		
13.875	0.431		
13.880	0.206		
13.885	-0.404		
13.890	0.128		
13.895	0.541		
13.900	-0.314		
13.905	-0.168		
13.910	0.649		
13.915	-0.139		
13.920	-0.361		
13.925	0.480		
13.930	0.223		
13.935	-0.404		
13.940	0.151		
13.945	0.581		
13.950	-0.314		
13.955	-0.180		
13.960	0.619		
13.965	-0.142		
13.970	-0.386		
13.975	0.453		
13.980	0.233		
13.985	-0.401		
13.990	0.133		
13.995	0.598		
14.000	-0.302		
14.005	-0.162		
14.010	0.684		
14.015	-0.104		
14.020	-0.343		
14.025	0.553		
14.030	0.311		
14.035	-0.364		
14.040	0.232		
14.045	0.681		
14.050	-0.267		
14.055	-0.117		
14.060	0.784		
14.065	-0.058		
14.070	-0.303		
14.075	0.643		
14.080	0.415		
14.085	-0.308		
14.090	0.302		
14.095	0.750		
14.100	-0.242		
14.105	-0.111		
14.110	0.762		
14.115	-0.075		
14.120	-0.361		
14.125	0.474		
14.130	0.198		
14.135	-0.447		
14.140	0.008		
14.145	0.460		
14.150	-0.381		
14.155	-0.261		
14.160	0.498		
14.165	-0.209		
14.170	-0.450		
14.175	0.346		
14.180	0.114		
14.185	-0.480		
14.190	0.006		
14.195	0.520		
14.200	-0.345		
14.205	-0.226		
14.210	0.622		
14.215	-0.133		
14.220	-0.374		
14.225	0.476		
14.230	0.258		
14.235	-0.401		
14.240	0.145		
14.245	0.622		
14.250	-0.294		
14.255	-0.175		
14.260	0.681		
14.265	-0.105		
14.270	-0.348		
14.275	0.559		
14.280	0.312		
14.285	-0.375		
14.290	0.186		
14.295	0.657		
14.300	-0.268		
14.305	-0.148		
14.310	0.712		
14.315	-0.096		
14.320	-0.354		
14.325	0.529		
14.330	0.296		
14.335	-0.380		
14.340	0.187		
14.345	0.642		
14.350	-0.291		
14.355	-0.172		
14.360	0.683		
14.365	-0.114		
14.370	-0.377		
14.375	0.497		
14.380	0.270		
14.385	-0.399		
14.390	0.130		
14.395	0.593		
14.400	-0.314		
14.405	-0.209		
14.410	0.614		
14.415	-0.130		
14.420	-0.396		
14.425	0.425		
14.430	0.223		
14.435	-0.413		
14.440	0.113		
14.445	0.572		
14.450	-0.331		
14.455	-0.220		
14.460	0.604		
14.465	-0.148		
14.470	-0.384		
14.475	0.439		
14.480	0.265		
14.485	-0.403		
14.490	0.125		
14.495	0.625		
14.500	-0.314		
14.505	-0.209		
14.510	0.668		
14.515	-0.102		
14.520	-0.372		
14.525	0.477		
14.530	0.261		
14.535	-0.410		
14.540	0.108		
14.545	0.570		
14.550	-0.313		
14.555	-0.185		
14.560	0.646		
14.565	-0.116		
14.570	-0.380		
14.575	0.454		
14.580	0.256		
14.585	-0.407		
14.590	0.114		
14.595	0.585		
14.600	-0.319		
14.605	-0.204		
14.610	0.639		
14.615	-0.104		
14.620	-0.361		
14.625	0.508		
14.630	0.315		
14.635	-0.372		
14.640	0.166		
14.645	0.683		
14.650	-0.267		
14.655	-0.160		
14.660	0.703		
14.665	-0.070		
14.670	-0.355		
14.675	0.530		
14.680	0.349		
14.685	-0.360		
14.690	0.206		
14.695	0.686		
14.700	-0.264		
14.705	-0.162		
14.710	0.732		
14.715	-0.053		
14.720	-0.319		
14.725	0.575		
14.730	0.358		
14.735	-0.355		
14.740	0.226		
14.745	0.712		
14.750	-0.252		
14.755	-0.131		
14.760	0.776		
14.765	-0.027		
14.770	-0.313		
14.775	0.613		
14.780	0.431		
14.785	-0.313		
14.790	0.265		
14.795	0.774		
14.800	-0.218		
14.805	-0.130		
14.810	0.756		
14.815	-0.076		
14.820	-0.355		
14.825	0.468		
14.830	0.280		
14.835	-0.396		
14.840	0.078		
14.845	0.534		
14.850	-0.340		
14.855	-0.239		
14.860	0.588		
14.865	-0.137		
14.870	-0.412		
14.875	0.387		
14.880	0.206		
14.885	-0.421		
14.890	0.084		
14.895	0.594		
14.900	-0.256		
14.905	-0.073		
14.910	0.988		
14.915	0.219		
14.920	-0.235		
14.925	0.649		
14.930	0.288		
14.935	-0.521		
14.940	-0.194		
14.945	0.123		
14.950	-0.523		
14.955	-0.380		
14.960	0.386		
14.965	-0.209		
14.970	-0.462		
14.975	0.322		
14.980	0.175		
14.985	-0.447		
14.990	0.035		
14.995	0.555		
15.000	-0.317		
15.005	-0.215		
15.010	0.651		
15.015	-0.090		
15.020	-0.367		
15.025	0.497		
15.030	0.299		
15.035	-0.387		
15.040	0.126		
15.045	0.654		
15.050	-0.267		
15.055	-0.162		
15.060	0.739		
15.065	-0.053		
15.070	-0.335		
15.075	0.555		
15.080	0.389		
15.085	-0.351		
15.090	0.198		
15.095	0.719		
15.100	-0.238		
15.105	-0.146		
15.110	0.761		
15.115	-0.034		
15.120	-0.323		
15.125	0.575		
15.130	0.434		
15.135	-0.311		
15.140	0.265		
15.145	0.790		
15.150	-0.212		
15.155	-0.113		
15.160	0.811		
15.165	0.014		
15.170	-0.287		
15.175	0.639		
15.180	0.453		
15.185	-0.320		
15.190	0.245		
15.195	0.750		
15.200	-0.236		
15.205	-0.159		
15.210	0.698		
15.215	-0.082		
15.220	-0.383		
15.225	0.418		
15.230	0.213		
15.235	-0.454		
15.240	-0.031		
15.245	0.436		
15.250	-0.387		
15.255	-0.303		
15.260	0.427		
15.265	-0.198		
15.270	-0.464		
15.275	0.282		
15.280	0.155		
15.285	-0.456		
15.290	-0.024		
15.295	0.476		
15.300	-0.351		
15.305	-0.255		
15.310	0.555		
15.315	-0.142		
15.320	-0.413		
15.325	0.390		
15.330	0.230		
15.335	-0.422		
15.340	0.058		
15.345	0.613		
15.350	-0.284		
15.355	-0.192		
15.360	0.663		
15.365	-0.082		
15.370	-0.367		
15.375	0.468		
15.380	0.358		
15.385	-0.360		
15.390	0.155		
15.395	0.691		
15.400	-0.256		
15.405	-0.175		
15.410	0.700		
15.415	-0.060		
15.420	-0.355		
15.425	0.509		
15.430	0.355		
15.435	-0.377		
15.440	0.128		
15.445	0.665		
15.450	-0.268		
15.455	-0.186		
15.460	0.684		
15.465	-0.055		
15.470	-0.355		
15.475	0.491		
15.480	0.328		
15.485	-0.387		
15.490	0.076		
15.495	0.588		
15.500	-0.285		
15.505	-0.206		
15.510	0.649		
15.515	-0.093		
15.520	-0.381		
15.525	0.439		
15.530	0.283		
15.535	-0.393		
15.540	0.111		
15.545	0.643		
15.550	-0.271		
15.555	-0.192		
15.560	0.677		
15.565	-0.075		
15.570	-0.369		
15.575	0.492		
15.580	0.375		
15.585	-0.343		
15.590	0.171		
15.595	0.684		
15.600	-0.259		
15.605	-0.207		
15.610	0.648		
15.615	-0.092		
15.620	-0.389		
15.625	0.428		
15.630	0.288		
15.635	-0.419		
15.640	0.047		
15.645	0.559		
15.650	-0.316		
15.655	-0.230		
15.660	0.607		
15.665	-0.113		
15.670	-0.401		
15.675	0.418		
15.680	0.322		
15.685	-0.378		
15.690	0.166		
15.695	0.832		
15.700	-0.084		
15.705	0.123		
15.710	1.075		
15.715	0.142		
15.720	-0.319		
15.725	0.325		
15.730	0.029		
15.735	-0.561		
15.740	-0.166		
15.745	0.308		
15.750	-0.406		
15.755	-0.291		
15.760	0.555		
15.765	-0.107		
15.770	-0.390		
15.775	0.457		
15.780	0.341		
15.785	-0.370		
15.790	0.136		
15.795	0.666		
15.800	-0.256		
15.805	-0.180		
15.810	0.698		
15.815	-0.032		
15.820	-0.343		
15.825	0.509		
15.830	0.372		
15.835	-0.361		
15.840	0.149		
15.845	0.694		
15.850	-0.244		
15.855	-0.165		
15.860	0.716		
15.865	-0.040		
15.870	-0.334		
15.875	0.518		
15.880	0.387		
15.885	-0.349		
15.890	0.168		
15.895	0.697		
15.900	-0.238		
15.905	-0.151		
15.910	0.748		
15.915	-0.006		
15.920	-0.328		
15.925	0.558		
15.930	0.445		
15.935	-0.323		
15.940	0.192		
15.945	0.744		
15.950	-0.220		
15.955	-0.142		
15.960	0.802		
15.965	0.033		
15.970	-0.310		
15.975	0.559		
15.980	0.415		
15.985	-0.342		
15.990	0.137		
15.995	0.649		
16.000	-0.302		
16.005	-0.250		
16.010	0.526		
16.015	-0.156		
16.020	-0.450		
16.025	0.262		
16.030	0.119		
16.035	-0.489		
16.040	-0.105		
16.045	0.360		
16.050	-0.395		
16.055	-0.331		
16.060	0.442		
16.065	-0.175		
16.070	-0.465		
16.075	0.279		
16.080	0.204		
16.085	-0.459		
16.090	-0.038		
16.095	0.517		
16.100	-0.328		
16.105	-0.259		
16.110	0.569		
16.115	-0.101		
16.120	-0.396		
16.125	0.424		
16.130	0.325		
16.135	-0.383		
16.140	0.072		
16.145	0.637		
16.150	-0.268		
16.155	-0.213		
16.160	0.695		
16.165	-0.020		
16.170	-0.343		
16.175	0.514		
16.180	0.381		
16.185	-0.357		
16.190	0.140		
16.195	0.704		
16.200	-0.249		
16.205	-0.191		
16.210	0.692		
16.215	-0.034		
16.220	-0.354		
16.225	0.472		
16.230	0.341		
16.235	-0.380		
16.240	0.097		
16.245	0.674		
16.250	-0.246		
16.255	-0.183		
16.260	0.675		
16.265	-0.052		
16.270	-0.366		
16.275	0.456		
16.280	0.355		
16.285	-0.360		
16.290	0.116		
16.295	0.675		
16.300	-0.261		
16.305	-0.209		
16.310	0.648		
16.315	-0.055		
16.320	-0.355		
16.325	0.482		
16.330	0.393		
16.335	-0.357		
16.340	0.125		
16.345	0.678		
16.350	-0.242		
16.355	-0.191		
16.360	0.744		
16.365	0.020		
16.370	-0.320		
16.375	0.508		
16.380	0.412		
16.385	-0.361		
16.390	0.082		
16.395	0.633		
16.400	-0.291		
16.405	-0.242		
16.410	0.602		
16.415	-0.090		
16.420	-0.396		
16.425	0.407		
16.430	0.300		
16.435	-0.406		
16.440	0.021		
16.445	0.594		
16.450	-0.285		
16.455	-0.226		
16.460	0.651		
16.465	-0.023		
16.470	-0.296		
16.475	0.745		
16.480	0.815		
16.485	-0.131		
16.490	0.404		
16.495	0.881		
16.500	-0.235		
16.505	-0.306		
16.510	0.334		
16.515	-0.253		
16.520	-0.543		
16.525	0.157		
16.530	0.137		
16.535	-0.453		
16.540	-0.018		
16.545	0.573		
16.550	-0.297		
16.555	-0.249		
16.560	0.598		
16.565	-0.079		
16.570	-0.390		
16.575	0.430		
16.580	0.354		
16.585	-0.370		
16.590	0.072		
16.595	0.643		
16.600	-0.256		
16.605	-0.200		
16.610	0.681		
16.615	-0.012		
16.620	-0.355		
16.625	0.463		
16.630	0.381		
16.635	-0.363		
16.640	0.081		
16.645	0.665		
16.650	-0.249		
16.655	-0.221		
16.660	0.662		
16.665	-0.026		
16.670	-0.351		
16.675	0.492		
16.680	0.413		
16.685	-0.343		
16.690	0.131		
16.695	0.713		
16.700	-0.221		
16.705	-0.165		
16.710	0.750		
16.715	0.038		
16.720	-0.326		
16.725	0.538		
16.730	0.479		
16.735	-0.311		
16.740	0.184		
16.745	0.797		
16.750	-0.185		
16.755	-0.148		
16.760	0.755		
16.765	0.014		
16.770	-0.354		
16.775	0.462		
16.780	0.340		
16.785	-0.410		
16.790	-0.015		
16.795	0.518		
16.800	-0.363		
16.805	-0.329		
16.810	0.416		
16.815	-0.192		
16.820	-0.486		
16.825	0.223		
16.830	0.157		
16.835	-0.465		
16.840	-0.084		
16.845	0.477		
16.850	-0.334		
16.855	-0.276		
16.860	0.540		
16.865	-0.116		
16.870	-0.422		
16.875	0.334		
16.880	0.283		
16.885	-0.412		
16.890	0.000		
16.895	0.599		
16.900	-0.290		
16.905	-0.241		
16.910	0.639		
16.915	-0.046		
16.920	-0.370		
16.925	0.472		
16.930	0.405		
16.935	-0.352		
16.940	0.099		
16.945	0.684		
16.950	-0.246		
16.955	-0.212		
16.960	0.671		
16.965	-0.024		
16.970	-0.363		
16.975	0.462		
16.980	0.405		
16.985	-0.357		
16.990	0.075		
16.995	0.675		
17.000	-0.255		
17.005	-0.213		
17.010	0.695		
17.015	-0.014		
17.020	-0.367		
17.025	0.460		
17.030	0.412		
17.035	-0.357		
17.040	0.087		
17.045	0.680		
17.050	-0.252		
17.055	-0.217		
17.060	0.675		
17.065	-0.026		
17.070	-0.366		
17.075	0.444		
17.080	0.369		
17.085	-0.370		
17.090	0.076		
17.095	0.672		
17.100	-0.262		
17.105	-0.217		
17.110	0.684		
17.115	-0.009		
17.120	-0.349		
17.125	0.489		
17.130	0.422		
17.135	-0.346		
17.140	0.097		
17.145	0.710		
17.150	-0.212		
17.155	-0.168		
17.160	0.742		
17.165	0.018		
17.170	-0.355		
17.175	0.431		
17.180	0.335		
17.185	-0.398		
17.190	0.014		
17.195	0.596		
17.200	-0.296		
17.205	-0.261		
17.210	0.570		
17.215	-0.085		
17.220	-0.412		
17.225	0.335		
17.230	0.282		
17.235	-0.406		
17.240	-0.003		
17.245	0.630		
17.250	-0.252		
17.255	-0.210		
17.260	0.776		
17.265	0.218		
17.270	-0.146		
17.275	0.930		
17.280	0.768		
17.285	-0.239		
17.290	0.113		
17.295	0.477		
17.300	-0.427		
17.305	-0.442		
17.310	0.288		
17.315	-0.204		
17.320	-0.496		
17.325	0.239		
17.330	0.207		
17.335	-0.435		
17.340	-0.060		
17.345	0.457		
17.350	-0.375		
17.355	-0.342		
17.360	0.442		
17.365	-0.154		
17.370	-0.474		
17.375	0.297		
17.380	0.256		
17.385	-0.430		
17.390	-0.038		
17.395	0.562		
17.400	-0.306		
17.405	-0.261		
17.410	0.649		
17.415	-0.041		
17.420	-0.396		
17.425	0.447		
17.430	0.421		
17.435	-0.354		
17.440	0.101		
17.445	0.733		
17.450	-0.226		
17.455	-0.194		
17.460	0.753		
17.465	0.027		
17.470	-0.342		
17.475	0.564		
17.480	0.546		
17.485	-0.313		
17.490	0.195		
17.495	0.829		
17.500	-0.191		
17.505	-0.143		
17.510	0.870		
17.515	0.149		
17.520	-0.294		
17.525	0.655		
17.530	0.616		
17.535	-0.282		
17.540	0.247		
17.545	0.899		
17.550	-0.172		
17.555	-0.172		
17.560	0.759		
17.565	0.020		
17.570	-0.363		
17.575	0.448		
17.580	0.372		
17.585	-0.422		
17.590	-0.058		
17.595	0.527		
17.600	-0.345		
17.605	-0.332		
17.610	0.491		
17.615	-0.154		
17.620	-0.486		
17.625	0.276		
17.630	0.245		
17.635	-0.462		
17.640	-0.078		
17.645	0.549		
17.650	-0.328		
17.655	-0.308		
17.660	0.561		
17.665	-0.076		
17.670	-0.428		
17.675	0.378		
17.680	0.363		
17.685	-0.406		
17.690	0.009		
17.695	0.663		
17.700	-0.274		
17.705	-0.250		
17.710	0.657		
17.715	-0.035		
17.720	-0.390		
17.725	0.456		
17.730	0.430		
17.735	-0.369		
17.740	0.076		
17.745	0.767		
17.750	-0.226		
17.755	-0.223		
17.760	0.721		
17.765	0.012		
17.770	-0.380		
17.775	0.474		
17.780	0.457		
17.785	-0.377		
17.790	0.050		
17.795	0.722		
17.800	-0.246		
17.805	-0.244		
17.810	0.684		
17.815	0.014		
17.820	-0.378		
17.825	0.463		
17.830	0.421		
17.835	-0.374		
17.840	0.040		
17.845	0.703		
17.850	-0.259		
17.855	-0.250		
17.860	0.668		
17.865	-0.029		
17.870	-0.375		
17.875	0.514		
17.880	0.489		
17.885	-0.351		
17.890	0.081		
17.895	0.748		
17.900	-0.217		
17.905	-0.203		
17.910	0.768		
17.915	0.050		
17.920	-0.367		
17.925	0.457		
17.930	0.445		
17.935	-0.389		
17.940	-0.026		
17.945	0.639		
17.950	-0.277		
17.955	-0.281		
17.960	0.625		
17.965	-0.050		
17.970	-0.416		
17.975	0.372		
17.980	0.351		
17.985	-0.416		
17.990	-0.003		
17.995	0.658		
18.000	-0.293		
18.005	-0.276		
18.010	0.663		
18.015	0.041		
18.020	-0.277		
18.025	0.820		
18.030	0.912		
18.035	-0.160		
18.040	0.323		
18.045	0.838		
18.050	-0.329		
18.055	-0.419		
18.060	0.258		
18.065	-0.253		
18.070	-0.569		
18.075	0.131		
18.080	0.200		
18.085	-0.477		
18.090	-0.053		
18.095	0.627		
18.100	-0.282		
18.105	-0.268		
18.110	0.668		
18.115	-0.006		
18.120	-0.401		
18.125	0.431		
18.130	0.459		
18.135	-0.377		
18.140	0.049		
18.145	0.727		
18.150	-0.250		
18.155	-0.239		
18.160	0.712		
18.165	0.024		
18.170	-0.375		
18.175	0.492		
18.180	0.498		
18.185	-0.366		
18.190	0.056		
18.195	0.782		
18.200	-0.217		
18.205	-0.233		
18.210	0.707		
18.215	0.020		
18.220	-0.383		
18.225	0.491		
18.230	0.514		
18.235	-0.335		
18.240	0.128		
18.245	0.828		
18.250	-0.188		
18.255	-0.195		
18.260	0.784		
18.265	0.094		
18.270	-0.326		
18.275	0.567		
18.280	0.578		
18.285	-0.314		
18.290	0.125		
18.295	0.799		
18.300	-0.217		
18.305	-0.206		
18.310	0.761		
18.315	0.040		
18.320	-0.386		
18.325	0.396		
18.330	0.348		
18.335	-0.454		
18.340	-0.090		
18.345	0.506		
18.350	-0.366		
18.355	-0.375		
18.360	0.434		
18.365	-0.177		
18.370	-0.549		
18.375	0.160		
18.380	0.161		
18.385	-0.506		
18.390	-0.134		
18.395	0.483		
18.400	-0.351		
18.405	-0.363		
18.410	0.517		
18.415	-0.090		
18.420	-0.454		
18.425	0.326		
18.430	0.337		
18.435	-0.430		
18.440	-0.041		
18.445	0.649		
18.450	-0.273		
18.455	-0.273		
18.460	0.680		
18.465	-0.012		
18.470	-0.406		
18.475	0.431		
18.480	0.448		
18.485	-0.377		
18.490	0.038		
18.495	0.742		
18.500	-0.235		
18.505	-0.236		
18.510	0.736		
18.515	0.038		
18.520	-0.378		
18.525	0.492		
18.530	0.482		
18.535	-0.363		
18.540	0.047		
18.545	0.750		
18.550	-0.239		
18.555	-0.253		
18.560	0.684		
18.565	0.026		
18.570	-0.378		
18.575	0.465		
18.580	0.469		
18.585	-0.364		
18.590	0.062		
18.595	0.768		
18.600	-0.224		
18.605	-0.239		
18.610	0.718		
18.615	0.040		
18.620	-0.367		
18.625	0.505		
18.630	0.532		
18.635	-0.346		
18.640	0.094		
18.645	0.802		
18.650	-0.212		
18.655	-0.242		
18.660	0.686		
18.665	-0.011		
18.670	-0.412		
18.675	0.390		
18.680	0.392		
18.685	-0.409		
18.690	-0.026		
18.695	0.658		
18.700	-0.274		
18.705	-0.300		
18.710	0.605		
18.715	-0.050		
18.720	-0.436		
18.725	0.357		
18.730	0.405		
18.735	-0.384		
18.740	0.093		
18.745	0.956		
18.750	-0.029		
18.755	0.021		
18.760	1.072		
18.765	0.233		
18.770	-0.369		
18.775	0.236		
18.780	0.091		
18.785	-0.601		
18.790	-0.256		
18.795	0.306		
18.800	-0.389		
18.805	-0.349		
18.810	0.553		
18.815	-0.072		
18.820	-0.448		
18.825	0.366		
18.830	0.428		
18.835	-0.393		
18.840	0.009		
18.845	0.719		
18.850	-0.239		
18.855	-0.247		
18.860	0.692		
18.865	0.014		
18.870	-0.390		
18.875	0.466		
18.880	0.503		
18.885	-0.360		
18.890	0.059		
18.895	0.797		
18.900	-0.209		
18.905	-0.233		
18.910	0.780		
18.915	0.101		
18.920	-0.363		
18.925	0.508		
18.930	0.549		
18.935	-0.337		
18.940	0.094		
18.945	0.819		
18.950	-0.200		
18.955	-0.221		
18.960	0.790		
18.965	0.111		
18.970	-0.346		
18.975	0.564		
18.980	0.588		
18.985	-0.316		
18.990	0.110		
18.995	0.829		
19.000	-0.174		
19.005	-0.194		
19.010	0.814		
19.015	0.076		
19.020	-0.378		
19.025	0.468		
19.030	0.526		
19.035	-0.370		
19.040	-0.014		
19.045	0.652		
19.050	-0.317		
19.055	-0.367		
19.060	0.445		
19.065	-0.146		
19.070	-0.540		
19.075	0.105		
19.080	0.146		
19.085	-0.543		
19.090	-0.185		
19.095	0.408		
19.100	-0.393		
19.105	-0.422		
19.110	0.425		
19.115	-0.148		
19.120	-0.520		
19.125	0.198		
19.130	0.262		
19.135	-0.489		
19.140	-0.139		
19.145	0.511		
19.150	-0.339		
19.155	-0.361		
19.160	0.501		
19.165	-0.096		
19.170	-0.479		
19.175	0.282		
19.180	0.346		
19.185	-0.435		
19.190	-0.024		
19.195	0.689		
19.200	-0.261		
19.205	-0.296		
19.210	0.631		
19.215	-0.003		
19.220	-0.409		
19.225	0.434		
19.230	0.517		
19.235	-0.357		
19.240	0.059		
19.245	0.809		
19.250	-0.194		
19.255	-0.210		
19.260	0.803		
19.265	0.125		
19.270	-0.352		
19.275	0.546		
19.280	0.628		
19.285	-0.308		
19.290	0.158		
19.295	0.898		
19.300	-0.156		
19.305	-0.194		
19.310	0.841		
19.315	0.186		
19.320	-0.322		
19.325	0.594		
19.330	0.648		
19.335	-0.294		
19.340	0.172		
19.345	0.895		
19.350	-0.146		
19.355	-0.168		
19.360	0.838		
19.365	0.219		
19.370	-0.291		
19.375	0.648		
19.380	0.691		
19.385	-0.271		
19.390	0.116		
19.395	0.806		
19.400	-0.195		
19.405	-0.244		
19.410	0.721		
19.415	0.047		
19.420	-0.396		
19.425	0.393		
19.430	0.441		
19.435	-0.398		
19.440	-0.044		
19.445	0.627		
19.450	-0.296		
19.455	-0.323		
19.460	0.582		
19.465	-0.024		
19.470	-0.415		
19.475	0.456		
19.480	0.645		
19.485	-0.226		
19.490	0.306		
19.495	0.927		
19.500	-0.195		
19.505	-0.328		
19.510	0.332		
19.515	-0.261		
19.520	-0.666		
19.525	-0.061		
19.530	0.058		
19.535	-0.529		
19.540	-0.157		
19.545	0.527		
19.550	-0.319		
19.555	-0.337		
19.560	0.573		
19.565	-0.026		
19.570	-0.428		
19.575	0.372		
19.580	0.471		
19.585	-0.381		
19.590	-0.008		
19.595	0.748		
19.600	-0.229		
19.605	-0.271		
19.610	0.695		
19.615	0.061		
19.620	-0.380		
19.625	0.466		
19.630	0.541		
19.635	-0.339		
19.640	0.040		
19.645	0.770		
19.650	-0.206		
19.655	-0.238		
19.660	0.756		
19.665	0.096		
19.670	-0.369		
19.675	0.462		
19.680	0.558		
19.685	-0.328		
19.690	0.070		
19.695	0.822		
19.700	-0.172		
19.705	-0.226		
19.710	0.791		
19.715	0.154		
19.720	-0.334		
19.725	0.559		
19.730	0.620		
19.735	-0.317		
19.740	0.093		
19.745	0.840		
19.750	-0.174		
19.755	-0.226		
19.760	0.744		
19.765	0.105		
19.770	-0.378		
19.775	0.413		
19.780	0.454		
19.785	-0.407		
19.790	-0.069		
19.795	0.587		
19.800	-0.314		
19.805	-0.372		
19.810	0.445		
19.815	-0.111		
19.820	-0.515		
19.825	0.139		
19.830	0.227		
19.835	-0.488		
19.840	-0.153		
19.845	0.506		
19.850	-0.331		
19.855	-0.369		
19.860	0.492		
19.865	-0.090		
19.870	-0.473		
19.875	0.311		
19.880	0.419		
19.885	-0.399		
19.890	-0.050		
19.895	0.710		
19.900	-0.229		
19.905	-0.277		
19.910	0.677		
19.915	0.041		
19.920	-0.407		
19.925	0.395		
19.930	0.486		
19.935	-0.393		
19.940	-0.032		
19.945	0.741		
19.950	-0.212		
19.955	-0.258		
19.960	0.715		
19.965	0.064		
19.970	-0.392		
19.975	0.405		
19.980	0.506		
19.985	-0.354		
19.990	-0.011		
19.995	0.719		
20.000	-0.242		
20.005	-0.288		
20.010	0.642		
20.015	0.014		
20.020	-0.409		
20.025	0.405		
20.030	0.512		
20.035	-0.369		
20.040	-0.038		
20.045	0.694		
20.050	-0.220		
20.055	-0.274		
20.060	0.663		
20.065	0.067		
20.070	-0.392		
20.075	0.407		
20.080	0.472		
20.085	-0.390		
20.090	-0.070		
20.095	0.623		
20.100	-0.281		
20.105	-0.334		
20.110	0.540		
20.115	-0.052		
20.120	-0.460		
20.125	0.283		
20.130	0.398		
20.135	-0.415		
20.140	-0.084		
20.145	0.616		
20.150	-0.288		
20.155	-0.349		
20.160	0.547		
20.165	-0.011		
20.170	-0.415		
20.175	0.459		
20.180	0.681		
20.185	-0.204		
20.190	0.325		
20.195	0.959		
20.200	-0.186		
20.205	-0.313		
20.210	0.378		
20.215	-0.192		
20.220	-0.611		
20.225	-0.012		
20.230	0.149		
20.235	-0.492		
20.240	-0.120		
20.245	0.628		
20.250	-0.241		
20.255	-0.296		
20.260	0.634		
20.265	0.050		
20.270	-0.393		
20.275	0.436		
20.280	0.534		
20.285	-0.342		
20.290	0.021		
20.295	0.805		
20.300	-0.168		
20.305	-0.229		
20.310	0.776		
20.315	0.148		
20.320	-0.354		
20.325	0.489		
20.330	0.604		
20.335	-0.308		
20.340	0.067		
20.345	0.864		
20.350	-0.149		
20.355	-0.213		
20.360	0.802		
20.365	0.180		
20.370	-0.339		
20.375	0.543		
20.380	0.684		
20.385	-0.276		
20.390	0.140		
20.395	0.899		
20.400	-0.143		
20.405	-0.200		
20.410	0.854		
20.415	0.227		
20.420	-0.320		
20.425	0.559		
20.430	0.684		
20.435	-0.284		
20.440	0.073		
20.445	0.855		
20.450	-0.160		
20.455	-0.235		
20.460	0.726		
20.465	0.105		
20.470	-0.390		
20.475	0.361		
20.480	0.412		
20.485	-0.421		
20.490	-0.137		
20.495	0.495		
20.500	-0.334		
20.505	-0.409		
20.510	0.380		
20.515	-0.130		
20.520	-0.541		
20.525	0.093		
20.530	0.183		
20.535	-0.515		
20.540	-0.186		
20.545	0.459		
20.550	-0.339		
20.555	-0.393		
20.560	0.425		
20.565	-0.101		
20.570	-0.494		
20.575	0.200		
20.580	0.335		
20.585	-0.441		
20.590	-0.107		
20.595	0.630		
20.600	-0.274		
20.605	-0.339		
20.610	0.552		
20.615	-0.012		
20.620	-0.435		
20.625	0.337		
20.630	0.482		
20.635	-0.367		
20.640	-0.014		
20.645	0.745		
20.650	-0.206		
20.655	-0.270		
20.660	0.674		
20.665	0.082		
20.670	-0.387		
20.675	0.421		
20.680	0.538		
20.685	-0.348		
20.690	-0.023		
20.695	0.733		
20.700	-0.213		
20.705	-0.293		
20.710	0.672		
20.715	0.099		
20.720	-0.383		
20.725	0.418		
20.730	0.511		
20.735	-0.358		
20.740	-0.014		
20.745	0.767		
20.750	-0.204		
20.755	-0.285		
20.760	0.662		
20.765	0.065		
20.770	-0.404		
20.775	0.370		
20.780	0.515		
20.785	-0.361		
20.790	-0.043		
20.795	0.707		
20.800	-0.217		
20.805	-0.296		
20.810	0.636		
20.815	0.052		
20.820	-0.403		
20.825	0.401		
20.830	0.547		
20.835	-0.346		
20.840	-0.020		
20.845	0.735		
20.850	-0.215		
20.855	-0.277		
20.860	0.687		
20.865	0.099		
20.870	-0.378		
20.875	0.431		
20.880	0.553		
20.885	-0.346		
20.890	-0.049		
20.895	0.680		
20.900	-0.244		
20.905	-0.319		
20.910	0.564		
20.915	-0.005		
20.920	-0.445		
20.925	0.311		
20.930	0.460		
20.935	-0.389		
20.940	-0.066		
20.945	0.665		
20.950	-0.239		
20.955	-0.305		
20.960	0.645		
20.965	0.096		
20.970	-0.361		
20.975	0.524		
20.980	0.793		
20.985	-0.156		
20.990	0.363		
20.995	1.044		
21.000	-0.120		
21.005	-0.294		
21.010	0.445		
21.015	-0.153		
21.020	-0.581		
21.025	0.026		
21.030	0.238		
21.035	-0.444		
21.040	-0.108		
21.045	0.634		
21.050	-0.235		
21.055	-0.306		
21.060	0.633		
21.065	0.091		
21.070	-0.396		
21.075	0.413		
21.080	0.569		
21.085	-0.340		
21.090	-0.012		
21.095	0.756		
21.100	-0.168		
21.105	-0.246		
21.110	0.733		
21.115	0.151		
21.120	-0.369		
21.125	0.437		
21.130	0.608		
21.135	-0.316		
21.140	0.004		
21.145	0.780		
21.150	-0.182		
21.155	-0.249		
21.160	0.698		
21.165	0.149		
21.170	-0.366		
21.175	0.471		
21.180	0.623		
21.185	-0.323		
21.190	0.018		
21.195	0.805		
21.200	-0.168		
21.205	-0.253		
21.210	0.719		
21.215	0.171		
21.220	-0.357		
21.225	0.454		
21.230	0.585		
21.235	-0.306		
21.240	0.032		
21.245	0.806		
21.250	-0.157		
21.255	-0.235		
21.260	0.718		
21.265	0.142		
21.270	-0.378		
21.275	0.357		
21.280	0.485		
21.285	-0.387		
21.290	-0.105		
21.295	0.582		
21.300	-0.296		
21.305	-0.401		
21.310	0.389		
21.315	-0.099		
21.320	-0.528		
21.325	0.091		
21.330	0.270		
21.335	-0.470		
21.340	-0.183		
21.345	0.472		
21.350	-0.319		
21.355	-0.389		
21.360	0.437		
21.365	-0.053		
21.370	-0.485		
21.375	0.195		
21.380	0.361		
21.385	-0.430		
21.390	-0.130		
21.395	0.613		
21.400	-0.258		
21.405	-0.345		
21.410	0.544		
21.415	0.017		
21.420	-0.428		
21.425	0.303		
21.430	0.479		
21.435	-0.372		
21.440	-0.066		
21.445	0.691		
21.450	-0.220		
21.455	-0.299		
21.460	0.602		
21.465	0.079		
21.470	-0.406		
21.475	0.372		
21.480	0.544		
21.485	-0.339		
21.490	-0.056		
21.495	0.716		
21.500	-0.201		
21.505	-0.291		
21.510	0.649		
21.515	0.107		
21.520	-0.395		
21.525	0.376		
21.530	0.532		
21.535	-0.358		
21.540	-0.053		
21.545	0.709		
21.550	-0.207		
21.555	-0.302		
21.560	0.636		
21.565	0.093		
21.570	-0.392		
21.575	0.357		
21.580	0.514		
21.585	-0.352		
21.590	-0.052		
21.595	0.718		
21.600	-0.201		
21.605	-0.302		
21.610	0.607		
21.615	0.087		
21.620	-0.404		
21.625	0.355		
21.630	0.534		
21.635	-0.358		
21.640	-0.044		
21.645	0.730		
21.650	-0.194		
21.655	-0.288		
21.660	0.646		
21.665	0.117		
21.670	-0.395		
21.675	0.349		
21.680	0.526		
21.685	-0.357		
21.690	-0.069		
21.695	0.709		
21.700	-0.204		
21.705	-0.294		
21.710	0.633		
21.715	0.081		
21.720	-0.407		
21.725	0.302		
21.730	0.503		
21.735	-0.349		
21.740	-0.041		
21.745	0.735		
21.750	-0.197		
21.755	-0.302		
21.760	0.622		
21.765	0.093		
21.770	-0.404		
21.775	0.348		
21.780	0.535		
21.785	-0.349		
21.790	-0.055		
21.795	0.751		
21.800	-0.183		
21.805	-0.274		
21.810	0.668		
21.815	0.168		
21.820	-0.349		
21.825	0.444		
21.830	0.613		
21.835	-0.311		
21.840	-0.015		
21.845	0.767		
21.850	-0.209		
21.855	-0.323		
21.860	0.572		
21.865	0.047		
21.870	-0.433		
21.875	0.267		
21.880	0.482		
21.885	-0.363		
21.890	-0.082		
21.895	0.662		
21.900	-0.224		
21.905	-0.328		
21.910	0.573		
21.915	0.084		
21.920	-0.383		
21.925	0.408		
21.930	0.681		
21.935	-0.213		
21.940	0.297		
21.945	1.168		
21.950	-0.029		
21.955	-0.204		
21.960	0.668		
21.965	-0.047		
21.970	-0.563		
21.975	-0.053		
21.980	0.133		
21.985	-0.496		
21.990	-0.183		
21.995	0.547		
22.000	-0.258		
22.005	-0.345		
22.010	0.567		
22.015	0.056		
22.020	-0.419		
22.025	0.308		
22.030	0.546		
22.035	-0.370		
22.040	-0.087		
22.045	0.703		
22.050	-0.200		
22.055	-0.294		
22.060	0.651		
22.065	0.099		
22.070	-0.392		
22.075	0.360		
22.080	0.559		
22.085	-0.337		
22.090	-0.049		
22.095	0.739		
22.100	-0.182		
22.105	-0.288		
22.110	0.654		
22.115	0.145		
22.120	-0.387		
22.125	0.358		
22.130	0.567		
22.135	-0.332		
22.140	-0.027		
22.145	0.787		
22.150	-0.156		
22.155	-0.258		
22.160	0.706		
22.165	0.177		
22.170	-0.355		
22.175	0.437		
22.180	0.639		
22.185	-0.303		
22.190	-0.006		
22.195	0.808		
22.200	-0.157		
22.205	-0.253		
22.210	0.713		
22.215	0.187		
22.220	-0.358		
22.225	0.418		
22.230	0.608		
22.235	-0.334		
22.240	-0.069		
22.245	0.672		
22.250	-0.229		
22.255	-0.351		
22.260	0.498		
22.265	-0.023		
22.270	-0.492		
22.275	0.102		
22.280	0.311		
22.285	-0.454		
22.290	-0.194		
22.295	0.500		
22.300	-0.300		
22.305	-0.407		
22.310	0.431		
22.315	-0.021		
22.320	-0.473		
22.325	0.143		
22.330	0.360		
22.335	-0.412		
22.340	-0.122		
22.345	0.630		
22.350	-0.235		
22.355	-0.355		
22.360	0.537		
22.365	0.056		
22.370	-0.433		
22.375	0.259		
22.380	0.509		
22.385	-0.354		
22.390	-0.079		
22.395	0.719		
22.400	-0.182		
22.405	-0.310		
22.410	0.611		
22.415	0.105		
22.420	-0.381		
22.425	0.373		
22.430	0.607		
22.435	-0.317		
22.440	-0.043		
22.445	0.747		
22.450	-0.191		
22.455	-0.310		
22.460	0.633		
22.465	0.125		
22.470	-0.401		
22.475	0.323		
22.480	0.553		
22.485	-0.348		
22.490	-0.070		
22.495	0.733		
22.500	-0.188		
22.505	-0.308		
22.510	0.631		
22.515	0.155		
22.520	-0.399		
22.525	0.322		
22.530	0.579		
22.535	-0.340		
22.540	-0.087		
22.545	0.724		
22.550	-0.183		
22.555	-0.319		
22.560	0.601		
22.565	0.101		
22.570	-0.412		
22.575	0.340		
22.580	0.585		
22.585	-0.349		
22.590	-0.072		
22.595	0.739		
22.600	-0.174		
22.605	-0.314		
22.610	0.623		
22.615	0.134		
22.620	-0.403		
22.625	0.317		
22.630	0.541		
22.635	-0.343		
22.640	-0.076		
22.645	0.735		
22.650	-0.180		
22.655	-0.308		
22.660	0.598		
22.665	0.133		
22.670	-0.404		
22.675	0.320		
22.680	0.553		
22.685	-0.349		
22.690	-0.096		
22.695	0.707		
22.700	-0.186		
22.705	-0.323		
22.710	0.605		
22.715	0.146		
22.720	-0.398		
22.725	0.319		
22.730	0.546		
22.735	-0.332		
22.740	-0.063		
22.745	0.765		
22.750	-0.153		
22.755	-0.288		
22.760	0.652		
22.765	0.165		
22.770	-0.386		
22.775	0.331		
22.780	0.538		
22.785	-0.372		
22.790	-0.134		
22.795	0.639		
22.800	-0.224		
22.805	-0.354		
22.810	0.534		
22.815	0.068		
22.820	-0.441		
22.825	0.223		
22.830	0.483		
22.835	-0.380		
22.840	-0.114		
22.845	0.684		
22.850	-0.180		
22.855	-0.306		
22.860	0.686		
22.865	0.364		
22.870	-0.220		
22.875	0.759		
22.880	0.936		
22.885	-0.230		
22.890	-0.021		
22.895	0.593		
22.900	-0.339		
22.905	-0.514		
22.910	0.200		
22.915	-0.127		
22.920	-0.528		
22.925	0.126		
22.930	0.454		
22.935	-0.381		
22.940	-0.122		
22.945	0.669		
22.950	-0.207		
22.955	-0.335		
22.960	0.594		
22.965	0.155		
22.970	-0.403		
22.975	0.296		
22.980	0.588		
22.985	-0.334		
22.990	-0.090		
22.995	0.719		
23.000	-0.166		
23.005	-0.310		
23.010	0.622		
23.015	0.169		
23.020	-0.398		
23.025	0.326		
23.030	0.617		
23.035	-0.317		
23.040	-0.078		
23.045	0.741		
23.050	-0.154		
23.055	-0.294		
23.060	0.654		
23.065	0.213		
23.070	-0.363		
23.075	0.376		
23.080	0.643		
23.085	-0.303		
23.090	-0.055		
23.095	0.794		
23.100	-0.130		
23.105	-0.274		
23.110	0.677		
23.115	0.247		
23.120	-0.349		
23.125	0.398		
23.130	0.678		
23.135	-0.302		
23.140	-0.052		
23.145	0.806		
23.150	-0.136		
23.155	-0.285		
23.160	0.675		
23.165	0.201		
23.170	-0.399		
23.175	0.248		
23.180	0.503		
23.185	-0.387		
23.190	-0.172		
23.195	0.541		
23.200	-0.271		
23.205	-0.427		
23.210	0.367		
23.215	-0.034		
23.220	-0.518		
23.225	0.032		
23.230	0.361		
23.235	-0.435		
23.240	-0.204		
23.245	0.550		
23.250	-0.256		
23.255	-0.412		
23.260	0.437		
23.265	0.026		
23.270	-0.465		
23.275	0.178		
23.280	0.483		
23.285	-0.383		
23.290	-0.151		
23.295	0.645		
23.300	-0.198		
23.305	-0.340		
23.310	0.537		
23.315	0.126		
23.320	-0.407		
23.325	0.283		
23.330	0.581		
23.335	-0.329		
23.340	-0.099		
23.345	0.719		
23.350	-0.162		
23.355	-0.322		
23.360	0.610		
23.365	0.174		
23.370	-0.399		
23.375	0.293		
23.380	0.602		
23.385	-0.328		
23.390	-0.114		
23.395	0.703		
23.400	-0.177		
23.405	-0.322		
23.410	0.622		
23.415	0.186		
23.420	-0.406		
23.425	0.261		
23.430	0.585		
23.435	-0.320		
23.440	-0.107		
23.445	0.726		
23.450	-0.159		
23.455	-0.320		
23.460	0.607		
23.465	0.195		
23.470	-0.396		
23.475	0.267		
23.480	0.575		
23.485	-0.334		
23.490	-0.105		
23.495	0.732		
23.500	-0.160		
23.505	-0.331		
23.510	0.601		
23.515	0.175		
23.520	-0.403		
23.525	0.280		
23.530	0.596		
23.535	-0.322		
23.540	-0.102		
23.545	0.741		
23.550	-0.153		
23.555	-0.316		
23.560	0.636		
23.565	0.215		
23.570	-0.387		
23.575	0.294		
23.580	0.625		
23.585	-0.296		
23.590	-0.084		
23.595	0.794		
23.600	-0.116		
23.605	-0.294		
23.610	0.642		
23.615	0.215		
23.620	-0.403		
23.625	0.233		
23.630	0.543		
23.635	-0.361		
23.640	-0.149		
23.645	0.671		
23.650	-0.185		
23.655	-0.370		
23.660	0.526		
23.665	0.125		
23.670	-0.424		
23.675	0.195		
23.680	0.520		
23.685	-0.352		
23.690	-0.120		
23.695	0.765		
23.700	-0.069		
23.705	-0.198		
23.710	1.015		
23.715	0.645		
23.720	-0.247		
23.725	0.415		
23.730	0.582		
23.735	-0.442		
23.740	-0.306		
23.745	0.297		
23.750	-0.345		
23.755	-0.492		
23.760	0.355		
23.765	0.065		
23.770	-0.442		
23.775	0.168		
23.780	0.534		
23.785	-0.337		
23.790	-0.124		
23.795	0.732		
23.800	-0.134		
23.805	-0.322		
23.810	0.611		
23.815	0.236		
23.820	-0.395		
23.825	0.255		
23.830	0.604		
23.835	-0.322		
23.840	-0.108		
23.845	0.747		
23.850	-0.128		
23.855	-0.322		
23.860	0.599		
23.865	0.219		
23.870	-0.401		
23.875	0.271		
23.880	0.655		
23.885	-0.297		
23.890	-0.090		
23.895	0.755		
23.900	-0.110		
23.905	-0.308		
23.910	0.658		
23.915	0.287		
23.920	-0.364		
23.925	0.306		
23.930	0.654		
23.935	-0.284		
23.940	-0.070		
23.945	0.802		
23.950	-0.082		
23.955	-0.274		
23.960	0.665		
23.965	0.312		
23.970	-0.335		
23.975	0.361		
23.980	0.692		
23.985	-0.277		
23.990	-0.084		
23.995	0.784		
24.000	-0.108		
24.005	-0.328		
24.010	0.558		
24.015	0.158		
24.020	-0.444		
24.025	0.114		
24.030	0.433		
24.035	-0.418		
24.040	-0.246		
24.045	0.472		
24.050	-0.255		
24.055	-0.438		
24.060	0.352		
24.065	0.020		
24.070	-0.494		
24.075	0.032		
24.080	0.383		
24.085	-0.425		
24.090	-0.236		
24.095	0.561		
24.100	-0.192		
24.105	-0.387		
24.110	0.445		
24.115	0.096		
24.120	-0.454		
24.125	0.122		
24.130	0.524		
24.135	-0.348		
24.140	-0.163		
24.145	0.669		
24.150	-0.153		
24.155	-0.351		
24.160	0.546		
24.165	0.201		
24.170	-0.404		
24.175	0.235		
24.180	0.633		
24.185	-0.306		
24.190	-0.136		
24.195	0.706		
24.200	-0.142		
24.205	-0.351		
24.210	0.549		
24.215	0.235		
24.220	-0.390		
24.225	0.212		
24.230	0.604		
24.235	-0.320		
24.240	-0.151		
24.245	0.710		
24.250	-0.128		
24.255	-0.340		
24.260	0.559		
24.265	0.236		
24.270	-0.399		
24.275	0.224		
24.280	0.628		
24.285	-0.317		
24.290	-0.145		
24.295	0.710		
24.300	-0.157		
24.305	-0.357		
24.310	0.562		
24.315	0.258		
24.320	-0.392		
24.325	0.219		
24.330	0.646		
24.335	-0.288		
24.340	-0.120		
24.345	0.739		
24.350	-0.111		
24.355	-0.334		
24.360	0.602		
24.365	0.312		
24.370	-0.357		
24.375	0.306		
24.380	0.709		
24.385	-0.284		
24.390	-0.128		
24.395	0.727		
24.400	-0.117		
24.405	-0.340		
24.410	0.523		
24.415	0.195		
24.420	-0.421		
24.425	0.148		
24.430	0.550		
24.435	-0.342		
24.440	-0.182		
24.445	0.652		
24.450	-0.145		
24.455	-0.367		
24.460	0.509		
24.465	0.201		
24.470	-0.416		
24.475	0.201		
24.480	0.646		
24.485	-0.264		
24.490	-0.011		
24.495	1.093		
24.500	0.253		
24.505	-0.168		
24.510	0.747		
24.515	0.340		
24.520	-0.462		
24.525	-0.063		
24.530	0.230		
24.535	-0.489		
24.540	-0.311		
24.545	0.488		
24.550	-0.201		
24.555	-0.407		
24.560	0.485		
24.565	0.195		
24.570	-0.418		
24.575	0.163		
24.580	0.620		
24.585	-0.306		
24.590	-0.156		
24.595	0.704		
24.600	-0.111		
24.605	-0.340		
24.610	0.512		
24.615	0.264		
24.620	-0.377		
24.625	0.235		
24.630	0.677		
24.635	-0.285		
24.640	-0.145		
24.645	0.736		
24.650	-0.087		
24.655	-0.329		
24.660	0.576		
24.665	0.300		
24.670	-0.375		
24.675	0.242		
24.680	0.666		
24.685	-0.288		
24.690	-0.130		
24.695	0.748		
24.700	-0.096		
24.705	-0.319		
24.710	0.631		
24.715	0.358		
24.720	-0.354		
24.725	0.276		
24.730	0.738		
24.735	-0.255		
24.740	-0.099		
24.745	0.814		
24.750	-0.060		
24.755	-0.311		
24.760	0.634		
24.765	0.366		
24.770	-0.355		
24.775	0.239		
24.780	0.697		
24.785	-0.290		
24.790	-0.163		
24.795	0.668		
24.800	-0.151		
24.805	-0.401		
24.810	0.404		
24.815	0.130		
24.820	-0.479		
24.825	-0.015		
24.830	0.370		
24.835	-0.421		
24.840	-0.282		
24.845	0.503		
24.850	-0.213		
24.855	-0.465		
24.860	0.322		
24.865	0.076		
24.870	-0.486		
24.875	0.012		
24.880	0.486		
24.885	-0.369		
24.890	-0.236		
24.895	0.578		
24.900	-0.168		
24.905	-0.410		
24.910	0.444		
24.915	0.229		
24.920	-0.422		
24.925	0.096		
24.930	0.587		
24.935	-0.308		
24.940	-0.180		
24.945	0.692		
24.950	-0.099		
24.955	-0.358		
24.960	0.534		
24.965	0.326		
24.970	-0.378		
24.975	0.175		
24.980	0.655		
24.985	-0.291		
24.990	-0.177		
24.995	0.712		
25.000	-0.099		
25.005	-0.369		
25.010	0.517		
25.015	0.305		
25.020	-0.390		
25.025	0.148		
25.030	0.645		
25.035	-0.297		
25.040	-0.166		
25.045	0.715		
25.050	-0.090		
25.055	-0.354		
25.060	0.530		
25.065	0.306		
25.070	-0.381		
25.075	0.163		
25.080	0.634		
25.085	-0.291		
25.090	-0.178		
25.095	0.713		
25.100	-0.090		
25.105	-0.370		
25.110	0.508		
25.115	0.314		
25.120	-0.378		
25.125	0.160		
25.130	0.651		
25.135	-0.285		
25.140	-0.178		
25.145	0.707		
25.150	-0.082		
25.155	-0.361		
25.160	0.517		
25.165	0.302		
25.170	-0.387		
25.175	0.146		
25.180	0.645		
25.185	-0.300		
25.190	-0.197		
25.195	0.712		
25.200	-0.084		
25.205	-0.361		
25.210	0.508		
25.215	0.315		
25.220	-0.380		
25.225	0.161		
25.230	0.649		
25.235	-0.277		
25.240	-0.172		
25.245	0.710		
25.250	-0.069		
25.255	-0.358		
25.260	0.541		
25.265	0.358		
25.270	-0.370		
25.275	0.137		
25.280	0.706		
25.285	-0.242		
25.290	-0.159		
25.295	0.756		
25.300	-0.049		
25.305	-0.339		
25.310	0.541		
25.315	0.303		
25.320	-0.410		
25.325	0.064		
25.330	0.587		
25.335	-0.322		
25.340	-0.233		
25.345	0.617		
25.350	-0.117		
25.355	-0.401		
25.360	0.428		
25.365	0.261		
25.370	-0.418		
25.375	0.064		
25.380	0.639		
25.385	-0.287		
25.390	-0.171		
25.395	0.887		
25.400	0.223		
25.405	-0.136		
25.410	0.884		
25.415	0.578		
25.420	-0.320		
25.425	0.047		
25.430	0.380		
25.435	-0.476		
25.440	-0.398		
25.445	0.341		
25.450	-0.212		
25.455	-0.457		
25.460	0.358		
25.465	0.224		
25.470	-0.425		
25.475	0.055		
25.480	0.602		
25.485	-0.306		
25.490	-0.212		
25.495	0.683		
25.500	-0.073		
25.505	-0.366		
25.510	0.515		
25.515	0.378		
25.520	-0.375		
25.525	0.120		
25.530	0.668		
25.535	-0.276		
25.540	-0.191		
25.545	0.729		
25.550	-0.046		
25.555	-0.367		
25.560	0.509		
25.565	0.381		
25.570	-0.363		
25.575	0.160		
25.580	0.707		
25.585	-0.255		
25.590	-0.174		
25.595	0.755		
25.600	-0.011		
25.605	-0.340		
25.610	0.553		
25.615	0.436		
25.620	-0.354		
25.625	0.139		
25.630	0.758		
25.635	-0.215		
25.640	-0.151		
25.645	0.787		
25.650	0.006		
25.655	-0.311		
25.660	0.604		
25.665	0.457		
25.670	-0.332		
25.675	0.195		
25.680	0.739		
25.685	-0.236		
25.690	-0.188		
25.695	0.726		
25.700	-0.044		
25.705	-0.387		
25.710	0.413		
25.715	0.244		
25.720	-0.448		
25.725	-0.037		
25.730	0.506		
25.735	-0.369		
25.740	-0.328		
25.745	0.462		
25.750	-0.192		
25.755	-0.492		
25.760	0.248		
25.765	0.171		
25.770	-0.476		
25.775	-0.060		
25.780	0.482		
25.785	-0.355		
25.790	-0.299		
25.795	0.541		
25.800	-0.111		
25.805	-0.428		
25.810	0.376		
25.815	0.280		
25.820	-0.427		
25.825	0.011		
25.830	0.622		
25.835	-0.287		
25.840	-0.235		
25.845	0.654		
25.850	-0.047		
25.855	-0.387		
25.860	0.459		
25.865	0.383		
25.870	-0.377		
25.875	0.078		
25.880	0.687		
25.885	-0.259		
25.890	-0.221		
25.895	0.671		
25.900	-0.052		
25.905	-0.381		
25.910	0.472		
25.915	0.424		
25.920	-0.378		
25.925	0.075		
25.930	0.683		
25.935	-0.261		
25.940	-0.218		
25.945	0.701		
25.950	-0.023		
25.955	-0.366		
25.960	0.472		
25.965	0.402		
25.970	-0.380		
25.975	0.061		
25.980	0.684		
25.985	-0.267		
25.990	-0.217		
25.995	0.698		
26.000	-0.021		
26.005	-0.377		
26.010	0.460		
26.015	0.380		
26.020	-0.374		
26.025	0.068		
26.030	0.695		
26.035	-0.259		
26.040	-0.241		
26.045	0.651		
26.050	-0.049		
26.055	-0.387		
26.060	0.437		
26.065	0.387		
26.070	-0.392		
26.075	0.018		
26.080	0.657		
26.085	-0.270		
26.090	-0.247		
26.095	0.657		
26.100	-0.021		
26.105	-0.390		
26.110	0.412		
26.115	0.380		
26.120	-0.380		
26.125	0.053		
26.130	0.694		
26.135	-0.252		
26.140	-0.242		
26.145	0.658		
26.150	-0.023		
26.155	-0.389		
26.160	0.444		
26.165	0.419		
26.170	-0.374		
26.175	0.058		
26.180	0.709		
26.185	-0.233		
26.190	-0.226		
26.195	0.707		
26.200	0.009		
26.205	-0.370		
26.210	0.476		
26.215	0.494		
26.220	-0.346		
26.225	0.093		
26.230	0.729		
26.235	-0.232		
26.240	-0.229		
26.245	0.660		
26.250	-0.020		
26.255	-0.399		
26.260	0.363		
26.265	0.360		
26.270	-0.404		
26.275	-0.021		
26.280	0.614		
26.285	-0.285		
26.290	-0.273		
26.295	0.604		
26.300	-0.041		
26.305	-0.409		
26.310	0.404		
26.315	0.451		
26.320	-0.335		
26.325	0.177		
26.330	0.998		
26.335	0.012		
26.340	-0.015		
26.345	0.930		
26.350	0.152		
26.355	-0.393		
26.360	0.184		
26.365	0.067		
26.370	-0.567		
26.375	-0.203		
26.380	0.402		
26.385	-0.342		
26.390	-0.316		
26.395	0.569		
26.400	-0.037		
26.405	-0.430		
26.410	0.370		
26.415	0.421		
26.420	-0.374		
26.425	-0.005		
26.430	0.674		
26.435	-0.249		
26.440	-0.258		
26.445	0.651		
26.450	0.017		
26.455	-0.375		
26.460	0.428		
26.465	0.463		
26.470	-0.351		
26.475	0.055		
26.480	0.748		
26.485	-0.213		
26.490	-0.241		
26.495	0.715		
26.500	0.056		
26.505	-0.367		
26.510	0.436		
26.515	0.477		
26.520	-0.349		
26.525	0.041		
26.530	0.748		
26.535	-0.207		
26.540	-0.233		
26.545	0.713		
26.550	0.085		
26.555	-0.339		
26.560	0.514		
26.565	0.544		
26.570	-0.329		
26.575	0.072		
26.580	0.811		
26.585	-0.172		
26.590	-0.220		
26.595	0.718		
26.600	0.090		
26.605	-0.360		
26.610	0.466		
26.615	0.535		
26.620	-0.325		
26.625	0.021		
26.630	0.721		
26.635	-0.229		
26.640	-0.308		
26.645	0.543		
26.650	-0.067		
26.655	-0.456		
26.660	0.236		
26.665	0.282		
26.670	-0.462		
26.675	-0.149		
26.680	0.466		
26.685	-0.346		
26.690	-0.386		
26.695	0.442		
26.700	-0.090		
26.705	-0.479		
26.710	0.181		
26.715	0.290		
26.720	-0.436		
26.725	-0.125		
26.730	0.527		
26.735	-0.291		
26.740	-0.326		
26.745	0.558		
26.750	-0.014		
26.755	-0.421		
26.760	0.323		
26.765	0.422		
26.770	-0.374		
26.775	-0.037		
26.780	0.680		
26.785	-0.230		
26.790	-0.285		
26.795	0.620		
26.800	0.044		
26.805	-0.387		
26.810	0.380		
26.815	0.463		
26.820	-0.363		
26.825	-0.008		
26.830	0.710		
26.835	-0.218		
26.840	-0.271		
26.845	0.639		
26.850	0.062		
26.855	-0.386		
26.860	0.381		
26.865	0.501		
26.870	-0.357		
26.875	-0.027		
26.880	0.712		
26.885	-0.203		
26.890	-0.274		
26.895	0.651		
26.900	0.076		
26.905	-0.393		
26.910	0.381		
26.915	0.541		
26.920	-0.326		
26.925	-0.008		
26.930	0.739		
26.935	-0.195		
26.940	-0.279		
26.945	0.662		
26.950	0.093		
26.955	-0.377		
26.960	0.389		
26.965	0.532		
26.970	-0.345		
26.975	-0.034		
26.980	0.701		
26.985	-0.206		
26.990	-0.293		
26.995	0.636		
27.000	0.093		
27.005	-0.399		
27.010	0.344		
27.015	0.506		
27.020	-0.349		
27.025	-0.035		
27.030	0.700		
27.035	-0.206		
27.040	-0.310		
27.045	0.590		
27.050	0.047		
27.055	-0.410		
27.060	0.308		
27.065	0.471		
27.070	-0.374		
27.075	-0.066		
27.080	0.680		
27.085	-0.212		
27.090	-0.303		
27.095	0.601		
27.100	0.075		
27.105	-0.406		
27.110	0.315		
27.115	0.508		
27.120	-0.343		
27.125	-0.038		
27.130	0.758		
27.135	-0.171		
27.140	-0.276		
27.145	0.645		
27.150	0.087		
27.155	-0.424		
27.160	0.261		
27.165	0.453		
27.170	-0.398		
27.175	-0.127		
27.180	0.578		
27.185	-0.267		
27.190	-0.367		
27.195	0.501		
27.200	0.017		
27.205	-0.442		
27.210	0.258		
27.215	0.462		
27.220	-0.366		
27.225	-0.064		
27.230	0.762		
27.235	-0.111		
27.240	-0.156		
27.245	1.055		
27.250	0.546		
27.255	-0.249		
27.260	0.491		
27.265	0.503		
27.270	-0.457		
27.275	-0.264		
27.280	0.317		
27.285	-0.360		
27.290	-0.435		
27.295	0.462		
27.300	0.053		
27.305	-0.403		
27.310	0.326		
27.315	0.567		
27.320	-0.328		
27.325	-0.050		
27.330	0.748		
27.335	-0.160		
27.340	-0.281		
27.345	0.668		
27.350	0.189		
27.355	-0.355		
27.360	0.399		
27.365	0.640		
27.370	-0.300		
27.375	-0.020		
27.380	0.806		
27.385	-0.139		
27.390	-0.271		
27.395	0.710		
27.400	0.248		
27.405	-0.343		
27.410	0.408		
27.415	0.623		
27.420	-0.303		
27.425	-0.024		
27.430	0.820		
27.435	-0.113		
27.440	-0.256		
27.445	0.712		
27.450	0.256		
27.455	-0.343		
27.460	0.405		
27.465	0.668		
27.470	-0.273		
27.475	-0.003		
27.480	0.812		
27.485	-0.099		
27.490	-0.244		
27.495	0.736		
27.500	0.270		
27.505	-0.332		
27.510	0.416		
27.515	0.658		
27.520	-0.294		
27.525	-0.043		
27.530	0.774		
27.535	-0.140		
27.540	-0.306		
27.545	0.582		
27.550	0.105		
27.555	-0.439		
27.560	0.134		
27.565	0.381		
27.570	-0.439		
27.575	-0.209		
27.580	0.483		
27.585	-0.314		
27.590	-0.454		
27.595	0.341		
27.600	-0.052		
27.605	-0.528		
27.610	0.023		
27.615	0.297		
27.620	-0.453		
27.625	-0.236		
27.630	0.474		
27.635	-0.282		
27.640	-0.438		
27.645	0.384		
27.650	0.012		
27.655	-0.479		
27.660	0.104		
27.665	0.428		
27.670	-0.395		
27.675	-0.171		
27.680	0.619		
27.685	-0.195		
27.690	-0.352		
27.695	0.567		
27.700	0.171		
27.705	-0.401		
27.710	0.267		
27.715	0.588		
27.720	-0.325		
27.725	-0.099		
27.730	0.748		
27.735	-0.140		
27.740	-0.308		
27.745	0.634		
27.750	0.239		
27.755	-0.367		
27.760	0.331		
27.765	0.648		
27.770	-0.294		
27.775	-0.098		
27.780	0.715		
27.785	-0.151		
27.790	-0.313		
27.795	0.613		
27.800	0.212		
27.805	-0.390		
27.810	0.268		
27.815	0.604		
27.820	-0.331		
27.825	-0.125		
27.830	0.710		
27.835	-0.163		
27.840	-0.351		
27.845	0.538		
27.850	0.171		
27.855	-0.410		
27.860	0.210		
27.865	0.570		
27.870	-0.339		
27.875	-0.157		
27.880	0.631		
27.885	-0.191		
27.890	-0.349		
27.895	0.543		
27.900	0.186		
27.905	-0.406		
27.910	0.212		
27.915	0.559		
27.920	-0.331		
27.925	-0.142		
27.930	0.687		
27.935	-0.146		
27.940	-0.337		
27.945	0.578		
27.950	0.251		
27.955	-0.380		
27.960	0.265		
27.965	0.628		
27.970	-0.308		
27.975	-0.153		
27.980	0.630		
27.985	-0.182		
27.990	-0.380		
27.995	0.466		
28.000	0.117		
28.005	-0.451		
28.010	0.101		
28.015	0.472		
28.020	-0.374		
28.025	-0.194		
28.030	0.598		
28.035	-0.178		
28.040	-0.363		
28.045	0.480		
28.050	0.197		
28.055	-0.352		
28.060	0.465		
28.065	0.989		
28.070	-0.067		
28.075	0.120		
28.080	0.910		
28.085	-0.104		
28.090	-0.424		
28.095	0.244		
28.100	-0.058		
28.105	-0.555		
28.110	-0.035		
28.115	0.469		
28.120	-0.323		
28.125	-0.136		
28.130	0.707		
28.135	-0.110		
28.140	-0.313		
28.145	0.652		
28.150	0.383		
28.155	-0.335		
28.160	0.328		
28.165	0.733		
28.170	-0.247		
28.175	-0.095		
28.180	0.814		
28.185	-0.052		
28.190	-0.291		
28.195	0.674		
28.200	0.408		
28.205	-0.331		
28.210	0.293		
28.215	0.716		
28.220	-0.258		
28.225	-0.110		
28.230	0.765		
28.235	-0.053		
28.240	-0.290		
28.245	0.658		
28.250	0.389		
28.255	-0.329		
28.260	0.303		
28.265	0.722		
28.270	-0.255		
28.275	-0.099		
28.280	0.808		
28.285	-0.031		
28.290	-0.291		
28.295	0.602		
28.300	0.354		
28.305	-0.348		
28.310	0.248		
28.315	0.672		
28.320	-0.294		
28.325	-0.140		
28.330	0.742		
28.335	-0.078		
28.340	-0.329		
28.345	0.559		
28.350	0.283		
28.355	-0.389		
28.360	0.126		
28.365	0.534		
28.370	-0.357		
28.375	-0.242		
28.380	0.517		
28.385	-0.210		
28.390	-0.465		
28.395	0.270		
28.400	0.035		
28.405	-0.520		
28.410	-0.060		
28.415	0.370		
28.420	-0.424		
28.425	-0.300		
28.430	0.441		
28.435	-0.229		
28.440	-0.474		
28.445	0.296		
28.450	0.111		
28.455	-0.476		
28.460	0.001		
28.465	0.483		
28.470	-0.360		
28.475	-0.241		
28.480	0.552		
28.485	-0.163		
28.490	-0.406		
28.495	0.416		
28.500	0.198		
28.505	-0.410		
28.510	0.145		
28.515	0.640		
28.520	-0.297		
28.525	-0.186		
28.530	0.697		
28.535	-0.095		
28.540	-0.377		
28.545	0.482		
28.550	0.311		
28.555	-0.387		
28.560	0.142		
28.565	0.639		
28.570	-0.303		
28.575	-0.203		
28.580	0.675		
28.585	-0.085		
28.590	-0.370		
28.595	0.483		
28.600	0.319		
28.605	-0.392		
28.610	0.139		
28.615	0.646		
28.620	-0.299		
28.625	-0.206		
28.630	0.666		
28.635	-0.098		
28.640	-0.374		
28.645	0.485		
28.650	0.308		
28.655	-0.398		
28.660	0.123		
28.665	0.654		
28.670	-0.287		
28.675	-0.204		
28.680	0.662		
28.685	-0.093		
28.690	-0.401		
28.695	0.489		
28.700	0.358		
28.705	-0.372		
28.710	0.148		
28.715	0.677		
28.720	-0.268		
28.725	-0.178		
28.730	0.735		
28.735	-0.031		
28.740	-0.340		
28.745	0.567		
28.750	0.430		
28.755	-0.349		
28.760	0.152		
28.765	0.648		
28.770	-0.308		
28.775	-0.215		
28.780	0.628		
28.785	-0.087		
28.790	-0.377		
28.795	0.476		
28.800	0.348		
28.805	-0.375		
28.810	0.113		
28.815	0.662		
28.820	-0.279		
28.825	-0.207		
28.830	0.701		
28.835	-0.035		
28.840	-0.340		
28.845	0.634		
28.850	0.617		
28.855	-0.182		
28.860	0.565		
28.865	1.023		
28.870	-0.143		
28.875	-0.162		
28.880	0.546		
28.885	-0.212		
28.890	-0.546		
28.895	0.108		
28.900	0.059		
28.905	-0.480		
28.910	-0.011		
28.915	0.601		
28.920	-0.297		
28.925	-0.242		
28.930	0.640		
28.935	-0.052		
28.940	-0.375		
28.945	0.469		
28.950	0.381		
28.955	-0.370		
28.960	0.114		
28.965	0.716		
28.970	-0.249		
28.975	-0.203		
28.980	0.694		
28.985	-0.034		
28.990	-0.369		
28.995	0.495		
29.000	0.422		
29.005	-0.352		
29.010	0.119		
29.015	0.704		
29.020	-0.250		
29.025	-0.218		
29.030	0.677		
29.035	-0.020		
29.040	-0.366		
29.045	0.468		
29.050	0.441		
29.055	-0.354		
29.060	0.114		
29.065	0.742		
29.070	-0.218		
29.075	-0.191		
29.080	0.750		
29.085	0.035		
29.090	-0.339		
29.095	0.537		
29.100	0.517		
29.105	-0.319		
29.110	0.146		
29.115	0.791		
29.120	-0.201		
29.125	-0.189		
29.130	0.750		
29.135	0.030		
29.140	-0.351		
29.145	0.480		
29.150	0.415		
29.155	-0.399		
29.160	0.001		
29.165	0.599		
29.170	-0.313		
29.175	-0.325		
29.180	0.445		
29.185	-0.153		
29.190	-0.500		
29.195	0.184		
29.200	0.168		
29.205	-0.494		
29.210	-0.137		
29.215	0.442		
29.220	-0.360		
29.225	-0.351		
29.230	0.434		
29.235	-0.143		
29.240	-0.483		
29.245	0.256		
29.250	0.293		
29.255	-0.433		
29.260	-0.064		
29.265	0.569		
29.270	-0.294		
29.275	-0.285		
29.280	0.607		
29.285	-0.027		
29.290	-0.396		
29.295	0.404		
29.300	0.413		
29.305	-0.378		
29.310	0.020		
29.315	0.695		
29.320	-0.229		
29.325	-0.247		
29.330	0.642		
29.335	-0.002		
29.340	-0.389		
29.345	0.428		
29.350	0.444		
29.355	-0.355		
29.360	0.033		
29.365	0.716		
29.370	-0.235		
29.375	-0.258		
29.380	0.660		
29.385	0.011		
29.390	-0.393		
29.395	0.416		
29.400	0.485		
29.405	-0.352		
29.410	0.021		
29.415	0.701		
29.420	-0.226		
29.425	-0.256		
29.430	0.611		
29.435	0.003		
29.440	-0.386		
29.445	0.422		
29.450	0.489		
29.455	-0.355		
29.460	0.009		
29.465	0.706		
29.470	-0.224		
29.475	-0.259		
29.480	0.651		
29.485	0.012		
29.490	-0.396		
29.495	0.398		
29.500	0.477		
29.505	-0.352		
29.510	0.011		
29.515	0.716		
29.520	-0.217		
29.525	-0.246		
29.530	0.686		
29.535	0.067		
29.540	-0.363		
29.545	0.454		
29.550	0.537		
29.555	-0.320		
29.560	0.038		
29.565	0.739		
29.570	-0.207		
29.575	-0.265		
29.580	0.651		
29.585	0.021		
29.590	-0.410		
29.595	0.319		
29.600	0.431		
29.605	-0.380		
29.610	-0.056		
29.615	0.625		
29.620	-0.258		
29.625	-0.302		
29.630	0.594		
29.635	0.011		
29.640	-0.425		
29.645	0.311		
29.650	0.456		
29.655	-0.363		
29.660	-0.008		
29.665	0.852		
29.670	-0.058		
29.675	-0.034		
29.680	1.114		
29.685	0.390		
29.690	-0.290		
29.695	0.386		
29.700	0.276		
29.705	-0.512		
29.710	-0.249		
29.715	0.331		
29.720	-0.355		
29.725	-0.395		
29.730	0.465		
29.735	-0.017		
29.740	-0.425		
29.745	0.309		
29.750	0.459		
29.755	-0.352		
29.760	-0.040		
29.765	0.684		
29.770	-0.197		
29.775	-0.261		
29.780	0.657		
29.785	0.101		
29.790	-0.387		
29.795	0.380		
29.800	0.549		
29.805	-0.340		
29.810	-0.040		
29.815	0.724		
29.820	-0.192		
29.825	-0.273		
29.830	0.646		
29.835	0.139		
29.840	-0.366		
29.845	0.396		
29.850	0.587		
29.855	-0.305		
29.860	-0.005		
29.865	0.779		
29.870	-0.148		
29.875	-0.246		
29.880	0.691		
29.885	0.197		
29.890	-0.340		
29.895	0.436		
29.900	0.631		
29.905	-0.277		
29.910	0.032		
29.915	0.822		
29.920	-0.120		
29.925	-0.230		
29.930	0.730		
29.935	0.221		
29.940	-0.346		
29.945	0.410		
29.950	0.619		
29.955	-0.311		
29.960	-0.050		
29.965	0.707		
29.970	-0.192		
29.975	-0.317		
29.980	0.514		
29.985	-0.005		
29.990	-0.467		
29.995	0.125		
30.000	0.305		
30.005	-0.447		
30.010	-0.195		
30.015	0.466		
30.020	-0.306		
30.025	-0.415		
30.030	0.364		
30.035	-0.066		
30.040	-0.503		
30.045	0.085		
30.050	0.322		
30.055	-0.433		
30.060	-0.160		
30.065	0.527		
30.070	-0.268		
30.075	-0.374		
30.080	0.482		
30.085	0.037		
30.090	-0.438		
30.095	0.212		
30.100	0.468		
30.105	-0.363		
30.110	-0.107		
30.115	0.668		
30.120	-0.200		
30.125	-0.323		
30.130	0.556		
30.135	0.105		
30.140	-0.412		
30.145	0.261		
30.150	0.544		
30.155	-0.328		
30.160	-0.082		
30.165	0.718		
30.170	-0.180		
30.175	-0.314		
30.180	0.588		
30.185	0.146		
30.190	-0.403		
30.195	0.294		
30.200	0.562		
30.205	-0.328		
30.210	-0.082		
30.215	0.704		
30.220	-0.171		
30.225	-0.311		
30.230	0.565		
30.235	0.143		
30.240	-0.387		
30.245	0.302		
30.250	0.567		
30.255	-0.331		
30.260	-0.089		
30.265	0.712		
30.270	-0.157		
30.275	-0.310		
30.280	0.605		
30.285	0.151		
30.290	-0.389		
30.295	0.283		
30.300	0.582		
30.305	-0.317		
30.310	-0.092		
30.315	0.712		
30.320	-0.165		
30.325	-0.308		
30.330	0.602		
30.335	0.177		
30.340	-0.386		
30.345	0.283		
30.350	0.587		
30.355	-0.313		
30.360	-0.096		
30.365	0.729		
30.370	-0.140		
30.375	-0.294		
30.380	0.610		
30.385	0.209		
30.390	-0.366		
30.395	0.293		
30.400	0.604		
30.405	-0.317		
30.410	-0.104		
30.415	0.716		
30.420	-0.142		
30.425	-0.306		
30.430	0.608		
30.435	0.245		
30.440	-0.360		
30.445	0.306		
30.450	0.620		
30.455	-0.299		
30.460	-0.081		
30.465	0.793		
30.470	-0.096		
30.475	-0.284		
30.480	0.613		
30.485	0.219		
30.490	-0.374		
30.495	0.258		
30.500	0.555		
30.505	-0.334		
30.510	-0.136		
30.515	0.631		
30.520	-0.182		
30.525	-0.358		
30.530	0.505		
30.535	0.168		
30.540	-0.421		
30.545	0.134		
30.550	0.468		
30.555	-0.367		
30.560	-0.145		
30.565	0.675		
30.570	-0.130		
30.575	-0.291		
30.580	0.756		
30.585	0.559		
30.590	-0.171		
30.595	0.582		
30.600	0.790		
30.605	-0.282		
30.610	-0.229		
30.615	0.355		
30.620	-0.343		
30.625	-0.521		
30.630	0.197		
30.635	-0.035		
30.640	-0.486		
30.645	0.094		
30.650	0.498		
30.655	-0.346		
30.660	-0.157		
30.665	0.651		
30.670	-0.148		
30.675	-0.345		
30.680	0.537		
30.685	0.229		
30.690	-0.384		
30.695	0.219		
30.700	0.601		
30.705	-0.316		
30.710	-0.142		
30.715	0.692		
30.720	-0.117		
30.725	-0.317		
30.730	0.596		
30.735	0.294		
30.740	-0.364		
30.745	0.201		
30.750	0.605		
30.755	-0.297		
30.760	-0.128		
30.765	0.747		
30.770	-0.085		
30.775	-0.316		
30.780	0.601		
30.785	0.309		
30.790	-0.361		
30.795	0.258		
30.800	0.668		
30.805	-0.271		
30.810	-0.105		
30.815	0.773		
30.820	-0.061		
30.825	-0.287		
30.830	0.646		
30.835	0.367		
30.840	-0.342		
30.845	0.290		
30.850	0.700		
30.855	-0.267		
30.860	-0.116		
30.865	0.748		
30.870	-0.081		
30.875	-0.328		
30.880	0.538		
30.885	0.244		
30.890	-0.401		
30.895	0.125		
30.900	0.524		
30.905	-0.355		
30.910	-0.238		
30.915	0.509		
30.920	-0.212		
30.925	-0.451		
30.930	0.287		
30.935	0.049		
30.940	-0.491		
30.945	-0.026		
30.950	0.384		
30.955	-0.412		
30.960	-0.288		
30.965	0.480		
30.970	-0.192		
30.975	-0.442		
30.980	0.376		
30.985	0.165		
30.990	-0.433		
30.995	0.090		
31.000	0.558		
31.005	-0.317		
31.010	-0.188		
31.015	0.652		
31.020	-0.125		
31.025	-0.367		
31.030	0.482		
31.035	0.262		
31.040	-0.392		
31.045	0.134		
31.050	0.607		
31.055	-0.294		
31.060	-0.175		
31.065	0.701		
31.070	-0.085		
31.075	-0.346		
31.080	0.515		
31.085	0.311		
31.090	-0.380		
31.095	0.177		
31.100	0.634		
31.105	-0.299		
31.110	-0.175		
31.115	0.703		
31.120	-0.075		
31.125	-0.349		
31.130	0.526		
31.135	0.329		
31.140	-0.386		
31.145	0.149		
31.150	0.607		
31.155	-0.281		
31.160	-0.163		
31.165	0.697		
31.170	-0.081		
31.175	-0.346		
31.180	0.501		
31.185	0.323		
31.190	-0.369		
31.195	0.165		
31.200	0.677		
31.205	-0.261		
31.210	-0.159		
31.215	0.732		
31.220	-0.053		
31.225	-0.335		
31.230	0.558		
31.235	0.393		
31.240	-0.349		
31.245	0.192		
31.250	0.709		
31.255	-0.247		
31.260	-0.160		
31.265	0.695		
31.270	-0.085		
31.275	-0.374		
31.280	0.433		
31.285	0.258		
31.290	-0.416		
31.295	0.047		
31.300	0.573		
31.305	-0.313		
31.310	-0.229		
31.315	0.623		
31.320	-0.090		
31.325	-0.387		
31.330	0.431		
31.335	0.297		
31.340	-0.372		
31.345	0.177		
31.350	0.820		
31.355	-0.114		
31.360	0.084		
31.365	1.096		
31.370	0.171		
31.375	-0.296		
31.380	0.418		
31.385	0.085		
31.390	-0.557		
31.395	-0.177		
31.400	0.247		
31.405	-0.415		
31.410	-0.294		
31.415	0.547		
31.420	-0.102		
31.425	-0.398		
31.430	0.441		
31.435	0.352		
31.440	-0.375		
31.445	0.076		
31.450	0.672		
31.455	-0.250		
31.460	-0.185		
31.465	0.692		
31.470	-0.034		
31.475	-0.352		
31.480	0.505		
31.485	0.407		
31.490	-0.360		
31.495	0.120		
31.500	0.706		
31.505	-0.255		
31.510	-0.197		
31.515	0.741		
31.520	-0.002		
31.525	-0.348		
31.530	0.511		
31.535	0.425		
31.540	-0.354		
31.545	0.110		
31.550	0.712		
31.555	-0.227		
31.560	-0.178		
31.565	0.745		
31.570	0.026		
31.575	-0.339		
31.580	0.529		
31.585	0.466		
31.590	-0.329		
31.595	0.169		
31.600	0.753		
31.605	-0.218		
31.610	-0.180		
31.615	0.758		
31.620	0.035		
31.625	-0.335		
31.630	0.523		
31.635	0.453		
31.640	-0.343		
31.645	0.084		
31.650	0.674		
31.655	-0.270		
31.660	-0.259		
31.665	0.544		
31.670	-0.128		
31.675	-0.476		
31.680	0.224		
31.685	0.174		
31.690	-0.488		
31.695	-0.124		
31.700	0.422		
31.705	-0.374		
31.710	-0.345		
31.715	0.430		
31.720	-0.154		
31.725	-0.476		
31.730	0.244		
31.735	0.239		
31.740	-0.453		
31.745	-0.056		
31.750	0.535		
31.755	-0.316		
31.760	-0.293		
31.765	0.562		
31.770	-0.069		
31.775	-0.395		
31.780	0.387		
31.785	0.370		
31.790	-0.378		
31.795	0.027		
31.800	0.668		
31.805	-0.246		
31.810	-0.238		
31.815	0.666		
31.820	0.012		
31.825	-0.355		
31.830	0.451		
31.835	0.428		
31.840	-0.354		
31.845	0.058		
31.850	0.698		
31.855	-0.227		
31.860	-0.235		
31.865	0.649		
31.870	0.020		
31.875	-0.369		
31.880	0.425		
31.885	0.430		
31.890	-0.354		
31.895	0.032		
31.900	0.686		
31.905	-0.226		
31.910	-0.232		
31.915	0.654		
31.920	0.014		
31.925	-0.370		
31.930	0.430		
31.935	0.447		
31.940	-0.349		
31.945	0.018		
31.950	0.680		
31.955	-0.227		
31.960	-0.249		
31.965	0.660		
31.970	0.015		
31.975	-0.374		
31.980	0.408		
31.985	0.416		
31.990	-0.366		
31.995	0.017		
32.000	0.691		
32.005	-0.217		
32.010	-0.249		
32.015	0.633		
32.020	-0.008		
32.025	-0.380		
32.030	0.415		
32.035	0.456		
32.040	-0.363		
32.045	0.011		
32.050	0.703		
32.055	-0.209		
32.060	-0.232		
32.065	0.651		
32.070	0.037		
32.075	-0.360		
32.080	0.447		
32.085	0.500		
32.090	-0.314		
32.095	0.073		
32.100	0.744		
32.105	-0.204		
32.110	-0.244		
32.115	0.651		
32.120	0.024		
32.125	-0.392		
32.130	0.349		
32.135	0.395		
32.140	-0.390		
32.145	-0.064		
32.150	0.588		
32.155	-0.274		
32.160	-0.311		
32.165	0.541		
32.170	0.001		
32.175	-0.404		
32.180	0.326		
32.185	0.424		
32.190	-0.355		
32.195	-0.003		
32.200	0.756		
32.205	-0.127		
32.210	-0.089		
32.215	1.090		
32.220	0.471		
32.225	-0.242		
32.230	0.529		
32.235	0.387		
32.240	-0.479		
32.245	-0.246		
32.250	0.265		
32.255	-0.392		
32.260	-0.407		
32.265	0.433		
32.270	-0.049		
32.275	-0.432		
32.280	0.285		
32.285	0.404		
32.290	-0.375		
32.295	-0.052		
32.300	0.654		
32.305	-0.226		
32.310	-0.288		
32.315	0.605		
32.320	0.065		
32.325	-0.381		
32.330	0.386		
32.335	0.494		
32.340	-0.355		
32.345	-0.018		
32.350	0.704		
32.355	-0.198		
32.360	-0.256		
32.365	0.683		
32.370	0.130		
32.375	-0.358		
32.380	0.390		
32.385	0.535		
32.390	-0.319		
32.395	-0.014		
32.400	0.727		
32.405	-0.185		
32.410	-0.262		
32.415	0.687		
32.420	0.130		
32.425	-0.357		
32.430	0.380		
32.435	0.552		
32.440	-0.303		
32.445	0.017		
32.450	0.764		
32.455	-0.146		
32.460	-0.235		
32.465	0.704		
32.470	0.175		
32.475	-0.329		
32.480	0.424		
32.485	0.559		
32.490	-0.291		
32.495	-0.005		
32.500	0.727		
32.505	-0.185		
32.510	-0.291		
32.515	0.555		
32.520	0.020		
32.525	-0.433		
32.530	0.204		
32.535	0.334		
32.540	-0.425		
32.545	-0.171		
32.550	0.456		
32.555	-0.316		
32.560	-0.419		
32.565	0.338		
32.570	-0.066		
32.575	-0.477		
32.580	0.119		
32.585	0.305		
32.590	-0.427		
32.595	-0.157		
32.600	0.527		
32.605	-0.265		
32.610	-0.361		
32.615	0.468		
32.620	0.012		
32.625	-0.438		
32.630	0.229		
32.635	0.442		
32.640	-0.367		
32.645	-0.096		
32.650	0.640		
32.655	-0.198		
32.660	-0.300		
32.665	0.593		
32.670	0.116		
32.675	-0.389		
32.680	0.309		
32.685	0.527		
32.690	-0.334		
32.695	-0.063		
32.700	0.689		
32.705	-0.175		
32.710	-0.287		
32.715	0.604		
32.720	0.140		
32.725	-0.377		
32.730	0.325		
32.735	0.534		
32.740	-0.323		
32.745	-0.063		
32.750	0.700		
32.755	-0.171		
32.760	-0.297		
32.765	0.602		
32.770	0.146		
32.775	-0.367		
32.780	0.302		
32.785	0.486		
32.790	-0.346		
32.795	-0.075		
32.800	0.671		
32.805	-0.171		
32.810	-0.290		
32.815	0.584		
32.820	0.122		
32.825	-0.383		
32.830	0.290		
32.835	0.537		
32.840	-0.325		
32.845	-0.073		
32.850	0.704		
32.855	-0.168		
32.860	-0.302		
32.865	0.565		
32.870	0.136		
32.875	-0.386		
32.880	0.302		
32.885	0.540		
32.890	-0.323		
32.895	-0.092		
32.900	0.703		
32.905	-0.157		
32.910	-0.313		
32.915	0.570		
32.920	0.157		
32.925	-0.369		
32.930	0.308		
32.935	0.576		
32.940	-0.314		
32.945	-0.066		
32.950	0.741		
32.955	-0.131		
32.960	-0.273		
32.965	0.663		
32.970	0.218		
32.975	-0.352		
32.980	0.331		
32.985	0.594		
32.990	-0.310		
32.995	-0.101		
33.000	0.646		
33.005	-0.185		
33.010	-0.337		
33.015	0.500		
33.020	0.073		
33.025	-0.418		
33.030	0.197		
33.035	0.489		
33.040	-0.345		
33.045	-0.122		
33.050	0.630		
33.055	-0.188		
33.060	-0.328		
33.065	0.584		
33.070	0.244		
33.075	-0.303		
33.080	0.552		
33.085	0.991		
33.090	-0.076		
33.095	0.131		
33.100	0.880		
33.105	-0.142		
33.110	-0.404		
33.115	0.232		
33.120	-0.127		
33.125	-0.557		
33.130	-0.021		
33.135	0.332		
33.140	-0.393		
33.145	-0.171		
33.150	0.594		
33.155	-0.186		
33.160	-0.343		
33.165	0.515		
33.170	0.158		
33.175	-0.387		
33.180	0.239		
33.185	0.552		
33.190	-0.325		
33.195	-0.120		
33.200	0.691		
33.205	-0.156		
33.210	-0.320		
33.215	0.593		
33.220	0.216		
33.225	-0.375		
33.230	0.236		
33.235	0.559		
33.240	-0.308		
33.245	-0.108		
33.250	0.730		
33.255	-0.111		
33.260	-0.306		
33.265	0.590		
33.270	0.236		
33.275	-0.366		
33.280	0.282		
33.285	0.642		
33.290	-0.282		
33.295	-0.076		
33.300	0.773		
33.305	-0.090		
33.310	-0.282		
33.315	0.614		
33.320	0.288		
33.325	-0.331		
33.330	0.323		
33.335	0.665		
33.340	-0.259		
33.345	-0.067		
33.350	0.777		
33.355	-0.082		
33.360	-0.274		
33.365	0.649		
33.370	0.290		
33.375	-0.351		
33.380	0.223		
33.385	0.512		
33.390	-0.345		
33.395	-0.183		
33.400	0.562		
33.405	-0.220		
33.410	-0.416		
33.415	0.337		
33.420	-0.005		
33.425	-0.494		
33.430	0.000		
33.435	0.363		
33.440	-0.410		
33.445	-0.252		
33.450	0.460		
33.455	-0.226		
33.460	-0.413		
33.465	0.389		
33.470	0.094		
33.475	-0.450		
33.480	0.084		
33.485	0.474		
33.490	-0.361		
33.495	-0.185		
33.500	0.598		
33.505	-0.165		
33.510	-0.358		
33.515	0.505		
33.520	0.232		
33.525	-0.393		
33.530	0.172		
33.535	0.565		
33.540	-0.306		
33.545	-0.125		
33.550	0.700		
33.555	-0.104		
33.560	-0.319		
33.565	0.558		
33.570	0.265		
33.575	-0.372		
33.580	0.221		
33.585	0.619		
33.590	-0.291		
33.595	-0.142		
33.600	0.680		
33.605	-0.125		
33.610	-0.349		
33.615	0.483		
33.620	0.227		
33.625	-0.381		
33.630	0.180		
33.635	0.567		
33.640	-0.313		
33.645	-0.163		
33.650	0.648		
33.655	-0.137		
33.660	-0.364		
33.665	0.462		
33.670	0.197		
33.675	-0.418		
33.680	0.114		
33.685	0.546		
33.690	-0.316		
33.695	-0.185		
33.700	0.637		
33.705	-0.143		
33.710	-0.372		
33.715	0.503		
33.720	0.244		
33.725	-0.398		
33.730	0.158		
33.735	0.599		
33.740	-0.302		
33.745	-0.171		
33.750	0.645		
33.755	-0.110		
33.760	-0.346		
33.765	0.514		
33.770	0.248		
33.775	-0.399		
33.780	0.168		
33.785	0.627		
33.790	-0.291		
33.795	-0.163		
33.800	0.683		
33.805	-0.102		
33.810	-0.351		
33.815	0.514		
33.820	0.285		
33.825	-0.378		
33.830	0.168		
33.835	0.640		
33.840	-0.276		
33.845	-0.145		
33.850	0.721		
33.855	-0.073		
33.860	-0.339		
33.865	0.564		
33.870	0.358		
33.875	-0.337		
33.880	0.250		
33.885	0.716		
33.890	-0.246		
33.895	-0.143		
33.900	0.687		
33.905	-0.110		
33.910	-0.377		
33.915	0.439		
33.920	0.258		
33.925	-0.392		
33.930	0.096		
33.935	0.558		
33.940	-0.308		
33.945	-0.189		
33.950	0.617		
33.955	-0.125		
33.960	-0.370		
33.965	0.477		
33.970	0.283		
33.975	-0.355		
33.980	0.224		
33.985	0.800		
33.990	-0.102		
33.995	0.161		
34.000	1.107		
34.005	0.126		
34.010	-0.273		
34.015	0.427		
34.020	0.038		
34.025	-0.561		
34.030	-0.136		
34.035	0.306		
34.040	-0.401		
34.045	-0.264		
34.050	0.559		
34.055	-0.131		
34.060	-0.389		
34.065	0.436		
34.070	0.264		
34.075	-0.386		
34.080	0.134		
34.085	0.631		
34.090	-0.282		
34.095	-0.186		
34.100	0.658		
34.105	-0.079		
34.110	-0.352		
34.115	0.511		
34.120	0.335		
34.125	-0.372		
34.130	0.166		
34.135	0.671		
34.140	-0.261		
34.145	-0.168		
34.150	0.713		
34.155	-0.052		
34.160	-0.342		
34.165	0.523		
34.170	0.332		
34.175	-0.370		
34.180	0.155		
34.185	0.691		
34.190	-0.252		
34.195	-0.168		
34.200	0.744		
34.205	-0.020		
34.210	-0.320		
34.215	0.562		
34.220	0.437		
34.225	-0.319		
34.230	0.194		
34.235	0.741		
34.240	-0.220		
34.245	-0.134		
34.250	0.790		
34.255	0.011		
34.260	-0.308		
34.265	0.565		
34.270	0.405		
34.275	-0.349		
34.280	0.143		
34.285	0.669		
34.290	-0.259		
34.295	-0.203		
34.300	0.613		
34.305	-0.116		
34.310	-0.428		
34.315	0.300		
34.320	0.136		
34.325	-0.486		
34.330	-0.070		
34.335	0.444		
34.340	-0.374		
34.345	-0.311		
34.350	0.448		
34.355	-0.175		
34.360	-0.464		
34.365	0.265		
34.370	0.149		
34.375	-0.462		
34.380	-0.031		
34.385	0.506		
34.390	-0.328		
34.395	-0.268		
34.400	0.555		
34.405	-0.110		
34.410	-0.403		
34.415	0.361		
34.420	0.267		
34.425	-0.389		
34.430	0.062		
34.435	0.622		
34.440	-0.270		
34.445	-0.209		
34.450	0.662		
34.455	-0.043		
34.460	-0.358		
34.465	0.456		
34.470	0.358		
34.475	-0.360		
34.480	0.081		
34.485	0.654		
34.490	-0.252		
34.495	-0.194		
34.500	0.700		
34.505	-0.023		
34.510	-0.352		
34.515	0.451		
34.520	0.375		
34.525	-0.361		
34.530	0.097		
34.535	0.668		
34.540	-0.244		
34.545	-0.203		
34.550	0.663		
34.555	-0.034		
34.560	-0.366		
34.565	0.448		
34.570	0.384		
34.575	-0.363		
34.580	0.078		
34.585	0.689		
34.590	-0.241		
34.595	-0.206		
34.600	0.678		
34.605	-0.015		
34.610	-0.346		
34.615	0.471		
34.620	0.402		
34.625	-0.361		
34.630	0.081		
34.635	0.678		
34.640	-0.226		
34.645	-0.191		
34.650	0.722		
34.655	0.029		
34.660	-0.328		
34.665	0.512		
34.670	0.431		
34.675	-0.351		
34.680	0.059		
34.685	0.658		
34.690	-0.262		
34.695	-0.249		
34.700	0.594		
34.705	-0.060		
34.710	-0.401		
34.715	0.373		
34.720	0.338		
34.725	-0.381		
34.730	0.018		
34.735	0.594		
34.740	-0.288		
34.745	-0.246		
34.750	0.640		
34.755	-0.009		
34.760	-0.322		
34.765	0.652		
34.770	0.777		
34.775	-0.113		
34.780	0.405		
34.785	0.863		
34.790	-0.215		
34.795	-0.305		
34.800	0.338		
34.805	-0.229		
34.810	-0.544		
34.815	0.126		
34.820	0.189		
34.825	-0.425		
34.830	-0.024		
34.835	0.594		
34.840	-0.268		
34.845	-0.259		
34.850	0.608		
34.855	-0.026		
34.860	-0.363		
34.865	0.425		
34.870	0.430		
34.875	-0.343		
34.880	0.046		
34.885	0.712		
34.890	-0.204		
34.895	-0.209		
34.900	0.678		
34.905	0.026		
34.910	-0.349		
34.915	0.460		
34.920	0.451		
34.925	-0.337		
34.930	0.065		
34.935	0.680		
34.940	-0.221		
34.945	-0.221		
34.950	0.677		
34.955	0.033		
34.960	-0.343		
34.965	0.476		
34.970	0.474		
34.975	-0.326		
34.980	0.091		
34.985	0.730		
34.990	-0.198		
34.995	-0.203		
35.000	0.707		
35.005	0.064		
35.010	-0.329		
35.015	0.494		
35.020	0.508		
35.025	-0.293		
35.030	0.131		
35.035	0.777		
35.040	-0.180		
35.045	-0.207		
35.050	0.687		
35.055	0.049		
35.060	-0.358		
35.065	0.390		
35.070	0.378		
35.075	-0.398		
35.080	-0.072		
35.085	0.501		
35.090	-0.332		
35.095	-0.358		
35.100	0.392		
35.105	-0.149		
35.110	-0.500		
35.115	0.125		
35.120	0.183		
35.125	-0.460		
35.130	-0.131		
35.135	0.425		
35.140	-0.335		
35.145	-0.343		
35.150	0.457		
35.155	-0.098		
35.160	-0.444		
35.165	0.253		
35.170	0.312		
35.175	-0.412		
35.180	-0.079		
35.185	0.573		
35.190	-0.258		
35.195	-0.287		
35.200	0.572		
35.205	-0.014		
35.210	-0.390		
35.215	0.387		
35.220	0.447		
35.225	-0.352		
35.230	-0.008		
35.235	0.683		
35.240	-0.212		
35.245	-0.239		
35.250	0.636		
35.255	0.026		
35.260	-0.366		
35.265	0.381		
35.270	0.434		
35.275	-0.361		
35.280	0.009		
35.285	0.691		
35.290	-0.215		
35.295	-0.250		
35.300	0.611		
35.305	0.030		
35.310	-0.367		
35.315	0.416		
35.320	0.472		
35.325	-0.346		
35.330	-0.017		
35.335	0.675		
35.340	-0.213		
35.345	-0.255		
35.350	0.637		
35.355	0.053		
35.360	-0.387		
35.365	0.323		
35.370	0.437		
35.375	-0.340		
35.380	0.009		
35.385	0.719		
35.390	-0.195		
35.395	-0.241		
35.400	0.657		
35.405	0.075		
35.410	-0.352		
35.415	0.421		
35.420	0.514		
35.425	-0.311		
35.430	0.027		
35.435	0.744		
35.440	-0.169		
35.445	-0.227		
35.450	0.671		
35.455	0.061		
35.460	-0.387		
35.465	0.320		
35.470	0.401		
35.475	-0.381		
35.480	-0.063		
35.485	0.631		
35.490	-0.226		
35.495	-0.288		
35.500	0.561		
35.505	0.011		
35.510	-0.392		
35.515	0.320		
35.520	0.412		
35.525	-0.364		
35.530	-0.038		
35.535	0.677		
35.540	-0.162		
35.545	-0.154		
35.550	0.982		
35.555	0.488		
35.560	-0.203		
35.565	0.578		
35.570	0.558		
35.575	-0.416		
35.580	-0.204		
35.585	0.299		
35.590	-0.392		
35.595	-0.415		
35.600	0.389		
35.605	-0.052		
35.610	-0.439		
35.615	0.265		
35.620	0.395		
35.625	-0.370		
35.630	-0.056		
35.635	0.648		
35.640	-0.217		
35.645	-0.273		
35.650	0.608		
35.655	0.070		
35.660	-0.377		
35.665	0.366		
35.670	0.498		
35.675	-0.335		
35.680	-0.034		
35.685	0.716		
35.690	-0.180		
35.695	-0.264		
35.700	0.633		
35.705	0.105		
35.710	-0.358		
35.715	0.358		
35.720	0.521		
35.725	-0.317		
35.730	-0.012		
35.735	0.729		
35.740	-0.169		
35.745	-0.246		
35.750	0.654		
35.755	0.113		
35.760	-0.343		
35.765	0.425		
35.770	0.579		
35.775	-0.303		
35.780	0.021		
35.785	0.773		
35.790	-0.153		
35.795	-0.224		
35.800	0.719		
35.805	0.186		
35.810	-0.331		
35.815	0.439		
35.820	0.588		
35.825	-0.320		
35.830	-0.017		
35.835	0.724		
35.840	-0.180		
35.845	-0.290		
35.850	0.561		
35.855	0.026		
35.860	-0.442		
35.865	0.174		
35.870	0.312		
35.875	-0.438		
35.880	-0.174		
35.885	0.434		
35.890	-0.316		
35.895	-0.403		
35.900	0.346		
35.905	-0.096		
35.910	-0.503		
35.915	0.088		
35.920	0.276		
35.925	-0.435		
35.930	-0.159		
35.935	0.512		
35.940	-0.277		
35.945	-0.364		
35.950	0.456		
35.955	-0.023		
35.960	-0.415		
35.965	0.267		
35.970	0.444		
35.975	-0.366		
35.980	-0.084		
35.985	0.628		
35.990	-0.217		
35.995	-0.302		
36.000	0.570		
36.005	0.090		
36.010	-0.393		
36.015	0.297		
36.020	0.474		
36.025	-0.339		
36.030	-0.053		
36.035	0.694		
36.040	-0.185		
36.045	-0.282		
36.050	0.627		
36.055	0.117		
36.060	-0.374		
36.065	0.338		
36.070	0.527		
36.075	-0.328		
36.080	-0.058		
36.085	0.691		
36.090	-0.175		
36.095	-0.281		
36.100	0.610		
36.105	0.111		
36.110	-0.387		
36.115	0.329		
36.120	0.537		
36.125	-0.319		
36.130	-0.052		
36.135	0.674		
36.140	-0.175		
36.145	-0.276		
36.150	0.608		
36.155	0.137		
36.160	-0.372		
36.165	0.305		
36.170	0.540		
36.175	-0.316		
36.180	-0.052		
36.185	0.695		
36.190	-0.174		
36.195	-0.281		
36.200	0.602		
36.205	0.134		
36.210	-0.370		
36.215	0.305		
36.220	0.500		
36.225	-0.325		
36.230	-0.067		
36.235	0.689		
36.240	-0.175		
36.245	-0.299		
36.250	0.602		
36.255	0.139		
36.260	-0.369		
36.265	0.300		
36.270	0.508		
36.275	-0.334		
36.280	-0.070		
36.285	0.698		
36.290	-0.160		
36.295	-0.294		
36.300	0.559		
36.305	0.113		
36.310	-0.387		
36.315	0.277		
36.320	0.508		
36.325	-0.328		
36.330	-0.073		
36.335	0.691		
36.340	-0.183		
36.345	-0.293		
36.350	0.604		
36.355	0.163		
36.360	-0.364		
36.365	0.314		
36.370	0.558		
36.375	-0.303		
36.380	-0.047		
36.385	0.736		
36.390	-0.136		
36.395	-0.268		
36.400	0.623		
36.405	0.165		
36.410	-0.377		
36.415	0.296		
36.420	0.506		
36.425	-0.345		
36.430	-0.116		
36.435	0.576		
36.440	-0.210		
36.445	-0.339		
36.450	0.497		
36.455	0.072		
36.460	-0.421		
36.465	0.201		
36.470	0.457		
36.475	-0.361		
36.480	-0.130		
36.485	0.652		
36.490	-0.163		
36.495	-0.277		
36.500	0.742		
36.505	0.439		
36.510	-0.163		
36.515	0.709		
36.520	0.817		
36.525	-0.253		
36.530	-0.110		
36.535	0.442		
36.540	-0.351		
36.545	-0.502		
36.550	0.190		
36.555	-0.085		
36.560	-0.476		
36.565	0.137		
36.570	0.419		
36.575	-0.364		
36.580	-0.133		
36.585	0.614		
36.590	-0.182		
36.595	-0.313		
36.600	0.569		
36.605	0.137		
36.610	-0.386		
36.615	0.264		
36.620	0.552		
36.625	-0.326		
36.630	-0.108		
36.635	0.703		
36.640	-0.139		
36.645	-0.288		
36.650	0.608		
36.655	0.197		
36.660	-0.361		
36.665	0.277		
36.670	0.549		
36.675	-0.310		
36.680	-0.075		
36.685	0.721		
36.690	-0.122		
36.695	-0.282		
36.700	0.614		
36.705	0.204		
36.710	-0.358		
36.715	0.305		
36.720	0.601		
36.725	-0.288		
36.730	-0.053		
36.735	0.764		
36.740	-0.107		
36.745	-0.267		
36.750	0.666		
36.755	0.274		
36.760	-0.340		
36.765	0.354		
36.770	0.651		
36.775	-0.264		
36.780	-0.043		
36.785	0.784		
36.790	-0.114		
36.795	-0.274		
36.800	0.622		
36.805	0.192		
36.810	-0.383		
36.815	0.212		
36.820	0.468		
36.825	-0.377		
36.830	-0.191		
36.835	0.483		
36.840	-0.256		
36.845	-0.422		
36.850	0.346		
36.855	-0.021		
36.860	-0.494		
36.865	0.040		
36.870	0.337		
36.875	-0.421		
36.880	-0.213		
36.885	0.512		
36.890	-0.232		
36.895	-0.407		
36.900	0.396		
36.905	0.040		
36.910	-0.442		
36.915	0.174		
36.920	0.483		
36.925	-0.363		
36.930	-0.154		
36.935	0.605		
36.940	-0.175		
36.945	-0.343		
36.950	0.521		
36.955	0.168		
36.960	-0.387		
36.965	0.233		
36.970	0.570		
36.975	-0.325		
36.980	-0.116		
36.985	0.701		
36.990	-0.134		
36.995	-0.331		
37.000	0.558		
37.005	0.195		
37.010	-0.384		
37.015	0.244		
37.020	0.585		
37.025	-0.314		
37.030	-0.113		
37.035	0.710		
37.040	-0.131		
37.045	-0.313		
37.050	0.572		
37.055	0.207		
37.060	-0.380		
37.065	0.258		
37.070	0.602		
37.075	-0.306		
37.080	-0.130		
37.085	0.694		
37.090	-0.148		
37.095	-0.323		
37.100	0.559		
37.105	0.204		
37.110	-0.375		
37.115	0.255		
37.120	0.601		
37.125	-0.308		
37.130	-0.114		
37.135	0.697		
37.140	-0.140		
37.145	-0.325		
37.150	0.537		
37.155	0.215		
37.160	-0.380		
37.165	0.239		
37.170	0.573		
37.175	-0.319		
37.180	-0.130		
37.185	0.692		
37.190	-0.117		
37.195	-0.335		
37.200	0.541		
37.205	0.229		
37.210	-0.375		
37.215	0.253		
37.220	0.614		
37.225	-0.299		
37.230	-0.124		
37.235	0.683		
37.240	-0.130		
37.245	-0.331		
37.250	0.543		
37.255	0.210		
37.260	-0.386		
37.265	0.226		
37.270	0.605		
37.275	-0.290		
37.280	-0.110		
37.285	0.718		
37.290	-0.125		
37.295	-0.316		
37.300	0.578		
37.305	0.282		
37.310	-0.340		
37.315	0.280		
37.320	0.646		
37.325	-0.282		
37.330	-0.122		
37.335	0.675		
37.340	-0.153		
37.345	-0.354		
37.350	0.465		
37.355	0.148		
37.360	-0.418		
37.365	0.110		
37.370	0.495		
37.375	-0.337		
37.380	-0.157		
37.385	0.646		
37.390	-0.157		
37.395	-0.366		
37.400	0.480		
37.405	0.197		
37.410	-0.375		
37.415	0.288		
37.420	0.790		
37.425	-0.133		
37.430	0.212		
37.435	1.090		
37.440	0.055		
37.445	-0.265		
37.450	0.453		
37.455	-0.035		
37.460	-0.567		
37.465	-0.108		
37.470	0.241		
37.475	-0.427		
37.480	-0.236		
37.485	0.553		
37.490	-0.175		
37.495	-0.380		
37.500	0.448		
37.505	0.177		
37.510	-0.392		
37.515	0.197		
37.520	0.602		
37.525	-0.297		
37.530	-0.136		
37.535	0.680		
37.540	-0.113		
37.545	-0.328		
37.550	0.546		
37.555	0.251		
37.560	-0.375		
37.565	0.218		
37.570	0.613		
37.575	-0.279		
37.580	-0.139		
37.585	0.710		
37.590	-0.099		
37.595	-0.325		
37.600	0.541		
37.605	0.265		
37.610	-0.360		
37.615	0.236		
37.620	0.666		
37.625	-0.265		
37.630	-0.120		
37.635	0.748		
37.640	-0.072		
37.645	-0.310		
37.650	0.590		
37.655	0.325		
37.660	-0.340		
37.665	0.253		
37.670	0.712		
37.675	-0.236		
37.680	-0.090		
37.685	0.782		
37.690	-0.047		
37.695	-0.297		
37.700	0.601		
37.705	0.332		
37.710	-0.339		
37.715	0.253		
37.720	0.634		
37.725	-0.299		
37.730	-0.182		
37.735	0.602		
37.740	-0.171		
37.745	-0.412		
37.750	0.352		
37.755	0.062		
37.760	-0.476		
37.765	-0.027		
37.770	0.349		
37.775	-0.421		
37.780	-0.293		
37.785	0.424		
37.790	-0.233		
37.795	-0.447		
37.800	0.322		
37.805	0.073		
37.810	-0.462		
37.815	0.023		
37.820	0.465		
37.825	-0.369		
37.830	-0.229		
37.835	0.578		
37.840	-0.153		
37.845	-0.390		
37.850	0.419		
37.855	0.197		
37.860	-0.406		
37.865	0.131		
37.870	0.567		
37.875	-0.311		
37.880	-0.180		
37.885	0.652		
37.890	-0.111		
37.895	-0.355		
37.900	0.512		
37.905	0.291		
37.910	-0.360		
37.915	0.163		
37.920	0.579		
37.925	-0.288		
37.930	-0.154		
37.935	0.700		
37.940	-0.082		
37.945	-0.340		
37.950	0.526		
37.955	0.277		
37.960	-0.369		
37.965	0.178		
37.970	0.623		
37.975	-0.284		
37.980	-0.166		
37.985	0.683		
37.990	-0.096		
37.995	-0.335		
38.000	0.530		
38.005	0.283		
38.010	-0.374		
38.015	0.154		
38.020	0.631		
38.025	-0.281		
38.030	-0.159		
38.035	0.677		
38.040	-0.095		
38.045	-0.349		
38.050	0.500		
38.055	0.279		
38.060	-0.369		
38.065	0.169		
38.070	0.627		
38.075	-0.281		
38.080	-0.160		
38.085	0.677		
38.090	-0.090		
38.095	-0.351		
38.100	0.512		
38.105	0.322		
38.110	-0.346		
38.115	0.207		
38.120	0.643		
38.125	-0.276		
38.130	-0.151		
38.135	0.727		
38.140	-0.056		
38.145	-0.311		
38.150	0.594		
38.155	0.378		
38.160	-0.348		
38.165	0.151		
38.170	0.587		
38.175	-0.319		
38.180	-0.215		
38.185	0.599		
38.190	-0.116		
38.195	-0.366		
38.200	0.453		
38.205	0.253		
38.210	-0.396		
38.215	0.090		
38.220	0.562		
38.225	-0.310		
38.230	-0.200		
38.235	0.620		
38.240	-0.095		
38.245	-0.335		
38.250	0.625		
38.255	0.610		
38.260	-0.145		
38.265	0.564		
38.270	0.898		
38.275	-0.203		
38.280	-0.204		
38.285	0.402		
38.290	-0.274		
38.295	-0.532		
38.300	0.114		
38.305	0.026		
38.310	-0.471		
38.315	-0.008		
38.320	0.520		
38.325	-0.302		
38.330	-0.203		
38.335	0.651		
38.340	-0.075		
38.345	-0.352		
38.350	0.486		
38.355	0.320		
38.360	-0.363		
38.365	0.123		
38.370	0.620		
38.375	-0.264		
38.380	-0.157		
38.385	0.721		
38.390	-0.050		
38.395	-0.339		
38.400	0.501		
38.405	0.335		
38.410	-0.357		
38.415	0.155		
38.420	0.662		
38.425	-0.253		
38.430	-0.166		
38.435	0.687		
38.440	-0.046		
38.445	-0.319		
38.450	0.537		
38.455	0.357		
38.460	-0.355		
38.465	0.180		
38.470	0.718		
38.475	-0.221		
38.480	-0.134		
38.485	0.738		
38.490	-0.021		
38.495	-0.311		
38.500	0.562		
38.505	0.436		
38.510	-0.303		
38.515	0.247		
38.520	0.748		
38.525	-0.213		
38.530	-0.134		
38.535	0.719		
38.540	-0.034		
38.545	-0.326		
38.550	0.491		
38.555	0.329		
38.560	-0.366		
38.565	0.061		
38.570	0.518		
38.575	-0.351		
38.580	-0.288		
38.585	0.424		
38.590	-0.198		
38.595	-0.476		
38.600	0.216		
38.605	0.091		
38.610	-0.485		
38.615	-0.078		
38.620	0.386		
38.625	-0.381		
38.630	-0.291		
38.635	0.465		
38.640	-0.166		
38.645	-0.427		
38.650	0.320		
38.655	0.195		
38.660	-0.435		
38.665	0.037		
38.670	0.534		
38.675	-0.314		
38.680	-0.236		
38.685	0.598		
38.690	-0.101		
38.695	-0.386		
38.700	0.421		
38.705	0.322		
38.710	-0.367		
38.715	0.104		
38.720	0.627		
38.725	-0.270		
38.730	-0.209		
38.735	0.674		
38.740	-0.038		
38.745	-0.342		
38.750	0.492		
38.755	0.375		
38.760	-0.351		
38.765	0.120		
38.770	0.646		
38.775	-0.264		
38.780	-0.204		
38.785	0.655		
38.790	-0.056		
38.795	-0.346		
38.800	0.474		
38.805	0.357		
38.810	-0.364		
38.815	0.091		
38.820	0.613		
38.825	-0.264		
38.830	-0.186		
38.835	0.684		
38.840	-0.040		
38.845	-0.339		
38.850	0.485		
38.855	0.381		
38.860	-0.337		
38.865	0.126		
38.870	0.683		
38.875	-0.232		
38.880	-0.171		
38.885	0.735		
38.890	0.015		
38.895	-0.308		
38.900	0.538		
38.905	0.384		
38.910	-0.351		
38.915	0.096		
38.920	0.636		
38.925	-0.268		
38.930	-0.226		
38.935	0.602		
38.940	-0.084		
38.945	-0.378		
38.950	0.384		
38.955	0.308		
38.960	-0.372		
38.965	0.055		
38.970	0.604		
38.975	-0.267		
38.980	-0.227		
38.985	0.601		
38.990	-0.056		
38.995	-0.343		
39.000	0.575		
39.005	0.637		
39.010	-0.143		
39.015	0.530		
39.020	0.939		
39.025	-0.166		
39.030	-0.217		
39.035	0.422		
39.040	-0.236		
39.045	-0.546		
39.050	0.082		
39.055	0.073		
39.060	-0.445		
39.065	-0.032		
39.070	0.549		
39.075	-0.282		
39.080	-0.235		
39.085	0.605		
39.090	-0.055		
39.095	-0.363		
39.100	0.460		
39.105	0.386		
39.110	-0.358		
39.115	0.087		
39.120	0.655		
39.125	-0.247		
39.130	-0.200		
39.135	0.678		
39.140	0.001		
39.145	-0.355		
39.150	0.465		
39.155	0.410		
39.160	-0.334		
39.165	0.113		
39.170	0.689		
39.175	-0.233		
39.180	-0.197		
39.185	0.681		
39.190	-0.017		
39.195	-0.348		
39.200	0.472		
39.205	0.428		
39.210	-0.339		
39.215	0.125		
39.220	0.709		
39.225	-0.210		
39.230	-0.171		
39.235	0.718		
39.240	0.044		
39.245	-0.308		
39.250	0.555		
39.255	0.489		
39.260	-0.299		
39.265	0.154		
39.270	0.748		
39.275	-0.200		
39.280	-0.169		
39.285	0.726		
39.290	0.035		
39.295	-0.325		
39.300	0.462		
39.305	0.337		
39.310	-0.390		
