Vernier Format 2
ecg4.txt 10/17/2025 10:27:6
Run 1
Time	Potential	EKG	
T	P	E	
s	mV	mV	

0.000	0.192	0.009	
0.005	-0.142	0.023	
0.010	-0.419	0.002	
0.015	0.041	-0.052	
0.020	0.117	-0.079	
0.025	-0.342	-0.081	
0.030	-0.049	-0.095	
0.035	0.486	-0.082	
0.040	-0.180	-0.027	
0.045	-0.242	0.000	
0.050	0.174	-0.009	
0.055	-0.271	-0.020	
0.060	-0.595	-0.066	
0.065	-0.235	-0.155	
0.070	-0.185	-0.227	
0.075	-0.529	-0.273	
0.080	-0.247	-0.314	
0.085	0.219	-0.314	
0.090	-0.281	-0.259	
0.095	-0.256	-0.212	
0.100	0.427	-0.167	
0.105	0.029	-0.085	
0.110	-0.274	-0.019	
0.115	0.372	0.010	
0.120	0.465	0.065	
0.125	-0.223	0.130	
0.130	0.101	0.144	
0.135	0.683	0.154	
0.140	-0.070	0.196	
0.145	-0.119	0.199	
0.150	0.613	0.178	
0.155	0.200	0.195	
0.160	-0.209	0.205	
0.165	0.469	0.183	
0.170	0.555	0.198	
0.175	-0.154	0.235	
0.180	0.247	0.232	
0.185	0.834	0.242	
0.190	0.102	0.295	
0.195	-0.034	0.313	
0.200	0.779	0.302	
0.205	0.393	0.329	
0.210	-0.127	0.348	
0.215	0.541	0.325	
0.220	0.567	0.323	
0.225	-0.162	0.333	
0.230	0.161	0.295	
0.235	0.677	0.260	
0.240	-0.125	0.260	
0.245	-0.198	0.222	
0.250	0.416	0.157	
0.255	0.009	0.126	
0.260	-0.328	0.093	
0.265	0.178	0.037	
0.270	0.253	0.016	
0.275	-0.339	0.019	
0.280	-0.082	-0.007	
0.285	0.389	-0.023	
0.290	-0.212	-0.005	
0.295	-0.265	-0.009	
0.300	0.343	-0.028	
0.305	-0.002	-0.012	
0.310	-0.328	-0.002	
0.315	0.161	-0.019	
0.320	0.251	-0.013	
0.325	-0.313	0.009	
0.330	-0.085	-0.003	
0.335	0.402	-0.012	
0.340	-0.210	0.009	
0.345	-0.273	0.004	
0.350	0.303	-0.020	
0.355	-0.085	-0.016	
0.360	-0.419	-0.025	
0.365	0.011	-0.067	
0.370	0.081	-0.090	
0.375	-0.407	-0.095	
0.380	-0.188	-0.123	
0.385	0.261	-0.138	
0.390	-0.284	-0.117	
0.395	-0.331	-0.115	
0.400	0.221	-0.126	
0.405	-0.102	-0.108	
0.410	-0.380	-0.096	
0.415	0.079	-0.108	
0.420	0.201	-0.095	
0.425	-0.294	-0.063	
0.430	-0.021	-0.054	
0.435	0.369	-0.038	
0.440	-0.337	-0.006	
0.445	-0.502	-0.026	
0.450	-0.154	-0.100	
0.455	-0.349	-0.172	
0.460	-0.595	-0.242	
0.465	-0.146	-0.309	
0.470	0.056	-0.324	
0.475	-0.383	-0.291	
0.480	-0.148	-0.260	
0.485	0.413	-0.209	
0.490	-0.166	-0.122	
0.495	-0.206	-0.062	
0.500	0.468	-0.027	
0.505	0.154	0.037	
0.510	-0.288	0.083	
0.515	0.303	0.086	
0.520	0.511	0.109	
0.525	-0.178	0.153	
0.530	0.046	0.156	
0.535	0.619	0.153	
0.540	-0.070	0.179	
0.545	-0.139	0.175	
0.550	0.608	0.152	
0.555	0.315	0.177	
0.560	-0.168	0.206	
0.565	0.471	0.203	
0.570	0.700	0.232	
0.575	-0.044	0.288	
0.580	0.341	0.306	
0.585	0.851	0.327	
0.590	0.096	0.376	
0.595	-0.006	0.378	
0.600	0.747	0.348	
0.605	0.419	0.357	
0.610	-0.159	0.361	
0.615	0.419	0.321	
0.620	0.562	0.299	
0.625	-0.166	0.297	
0.630	0.038	0.253	
0.635	0.594	0.208	
0.640	-0.102	0.200	
0.645	-0.207	0.167	
0.650	0.408	0.115	
0.655	0.067	0.100	
0.660	-0.296	0.085	
0.665	0.226	0.048	
0.670	0.344	0.044	
0.675	-0.264	0.064	
0.680	-0.084	0.050	
0.685	0.460	0.035	
0.690	-0.157	0.052	
0.695	-0.273	0.046	
0.700	0.338	0.017	
0.705	0.081	0.022	
0.710	-0.320	0.029	
0.715	0.114	0.006	
0.720	0.308	0.004	
0.725	-0.329	0.021	
0.730	-0.157	0.002	
0.735	0.328	-0.023	
0.740	-0.236	-0.018	
0.745	-0.349	-0.036	
0.750	0.116	-0.075	
0.755	-0.139	-0.093	
0.760	-0.444	-0.112	
0.765	-0.056	-0.151	
0.770	0.111	-0.163	
0.775	-0.412	-0.150	
0.780	-0.227	-0.159	
0.785	0.203	-0.165	
0.790	-0.279	-0.142	
0.795	-0.374	-0.138	
0.800	0.084	-0.154	
0.805	-0.136	-0.149	
0.810	-0.393	-0.146	
0.815	0.101	-0.156	
0.820	0.354	-0.124	
0.825	-0.339	-0.064	
0.830	-0.331	-0.053	
0.835	-0.120	-0.089	
0.840	-0.512	-0.141	
0.845	-0.614	-0.221	
0.850	-0.189	-0.309	
0.855	-0.305	-0.355	
0.860	-0.543	-0.374	
0.865	-0.102	-0.383	
0.870	0.120	-0.346	
0.875	-0.360	-0.274	
0.880	-0.172	-0.224	
0.885	0.357	-0.174	
0.890	-0.197	-0.101	
0.895	-0.293	-0.062	
0.900	0.326	-0.052	
0.905	0.076	-0.018	
0.910	-0.355	0.008	
0.915	0.149	-0.003	
0.920	0.364	0.006	
0.925	-0.285	0.037	
0.930	-0.085	0.032	
0.935	0.530	0.027	
0.940	-0.096	0.060	
0.945	-0.210	0.071	
0.950	0.526	0.064	
0.955	0.285	0.101	
0.960	-0.218	0.140	
0.965	0.402	0.146	
0.970	0.666	0.179	
0.975	-0.117	0.237	
0.980	0.049	0.244	
0.985	0.658	0.232	
0.990	0.015	0.247	
0.995	-0.172	0.232	
1.000	0.537	0.192	
1.005	0.212	0.188	
1.010	-0.250	0.184	
1.015	0.264	0.147	
1.020	0.437	0.135	
1.025	-0.235	0.145	
1.030	-0.104	0.118	
1.035	0.369	0.079	
1.040	-0.215	0.065	
1.045	-0.308	0.029	
1.050	0.315	-0.018	
1.055	-0.017	-0.024	
1.060	-0.375	-0.026	
1.065	0.064	-0.055	
1.070	0.270	-0.058	
1.075	-0.308	-0.035	
1.080	-0.136	-0.040	
1.085	0.395	-0.043	
1.090	-0.204	-0.016	
1.095	-0.291	-0.014	
1.100	0.320	-0.032	
1.105	-0.002	-0.019	
1.110	-0.370	-0.011	
1.115	0.052	-0.037	
1.120	0.236	-0.045	
1.125	-0.349	-0.032	
1.130	-0.203	-0.051	
1.135	0.271	-0.073	
1.140	-0.259	-0.066	
1.145	-0.389	-0.080	
1.150	0.096	-0.116	
1.155	-0.107	-0.126	
1.160	-0.439	-0.133	
1.165	-0.085	-0.162	
1.170	0.073	-0.171	
1.175	-0.418	-0.160	
1.180	-0.267	-0.173	
1.185	0.251	-0.179	
1.190	-0.268	-0.151	
1.195	-0.331	-0.138	
1.200	0.314	-0.134	
1.205	0.047	-0.092	
1.210	-0.401	-0.054	
1.215	-0.169	-0.068	
1.220	-0.165	-0.104	
1.225	-0.601	-0.153	
1.230	-0.464	-0.234	
1.235	-0.098	-0.305	
1.240	-0.401	-0.333	
1.245	-0.485	-0.349	
1.250	0.003	-0.355	
1.255	-0.137	-0.322	
1.260	-0.421	-0.278	
1.265	0.053	-0.247	
1.270	0.320	-0.187	
1.275	-0.279	-0.103	
1.280	-0.120	-0.060	
1.285	0.508	-0.028	
1.290	-0.133	0.028	
1.295	-0.264	0.049	
1.300	0.431	0.040	
1.305	0.213	0.066	
1.310	-0.287	0.093	
1.315	0.264	0.084	
1.320	0.543	0.101	
1.325	-0.197	0.143	
1.330	-0.008	0.144	
1.335	0.674	0.140	
1.340	0.043	0.175	
1.345	-0.142	0.189	
1.350	0.611	0.178	
1.355	0.405	0.208	
1.360	-0.142	0.244	
1.365	0.492	0.245	
1.370	0.758	0.274	
1.375	-0.079	0.326	
1.380	0.099	0.324	
1.385	0.751	0.304	
1.390	0.062	0.314	
1.395	-0.192	0.293	
1.400	0.505	0.237	
1.405	0.309	0.218	
1.410	-0.262	0.208	
1.415	0.200	0.164	
1.420	0.419	0.138	
1.425	-0.249	0.136	
1.430	-0.116	0.101	
1.435	0.463	0.064	
1.440	-0.124	0.066	
1.445	-0.285	0.052	
1.450	0.282	0.016	
1.455	0.085	0.012	
1.460	-0.305	0.015	
1.465	0.131	-0.005	
1.470	0.399	0.003	
1.475	-0.256	0.037	
1.480	-0.111	0.037	
1.485	0.454	0.029	
1.490	-0.142	0.050	
1.495	-0.288	0.045	
1.500	0.343	0.018	
1.505	0.116	0.024	
1.510	-0.342	0.034	
1.515	0.032	0.008	
1.520	0.258	-0.008	
1.525	-0.342	-0.004	
1.530	-0.239	-0.032	
1.535	0.279	-0.065	
1.540	-0.247	-0.066	
1.545	-0.378	-0.082	
1.550	0.181	-0.112	
1.555	-0.041	-0.109	
1.560	-0.392	-0.101	
1.565	0.023	-0.115	
1.570	0.293	-0.104	
1.575	-0.316	-0.065	
1.580	-0.154	-0.057	
1.585	0.503	-0.048	
1.590	-0.095	0.000	
1.595	-0.337	0.023	
1.600	-0.011	-0.006	
1.605	-0.236	-0.047	
1.610	-0.604	-0.108	
1.615	-0.296	-0.199	
1.620	-0.095	-0.266	
1.625	-0.442	-0.293	
1.630	-0.306	-0.311	
1.635	0.277	-0.299	
1.640	-0.169	-0.234	
1.645	-0.317	-0.176	
1.650	0.352	-0.136	
1.655	0.183	-0.065	
1.660	-0.284	0.002	
1.665	0.101	0.021	
1.670	0.488	0.046	
1.675	-0.185	0.090	
1.680	-0.066	0.098	
1.685	0.547	0.094	
1.690	-0.047	0.121	
1.695	-0.210	0.122	
1.700	0.520	0.103	
1.705	0.317	0.127	
1.710	-0.226	0.159	
1.715	0.323	0.153	
1.720	0.648	0.172	
1.725	-0.078	0.220	
1.730	0.108	0.231	
1.735	0.756	0.235	
1.740	0.136	0.275	
1.745	-0.084	0.287	
1.750	0.716	0.272	
1.755	0.445	0.297	
1.760	-0.156	0.321	
1.765	0.415	0.299	
1.770	0.715	0.297	
1.775	-0.102	0.322	
1.780	0.035	0.300	
1.785	0.613	0.260	
1.790	-0.021	0.250	
1.795	-0.242	0.214	
1.800	0.412	0.152	
1.805	0.160	0.128	
1.810	-0.337	0.111	
1.815	0.058	0.061	
1.820	0.372	0.032	
1.825	-0.267	0.036	
1.830	-0.174	0.017	
1.835	0.413	-0.006	
1.840	-0.142	0.008	
1.845	-0.313	0.005	
1.850	0.291	-0.020	
1.855	0.130	-0.010	
1.860	-0.322	0.008	
1.865	0.094	-0.005	
1.870	0.390	0.002	
1.875	-0.267	0.033	
1.880	-0.188	0.027	
1.885	0.407	0.008	
1.890	-0.127	0.020	
1.895	-0.357	0.013	
1.900	0.187	-0.023	
1.905	0.008	-0.035	
1.910	-0.395	-0.044	
1.915	-0.067	-0.079	
1.920	0.229	-0.096	
1.925	-0.339	-0.084	
1.930	-0.247	-0.095	
1.935	0.233	-0.110	
1.940	-0.220	-0.097	
1.945	-0.398	-0.101	
1.950	0.117	-0.126	
1.955	0.000	-0.122	
1.960	-0.406	-0.111	
1.965	-0.044	-0.125	
1.970	0.355	-0.115	
1.975	-0.232	-0.069	
1.980	-0.069	-0.042	
1.985	0.472	-0.016	
1.990	-0.238	0.029	
1.995	-0.506	0.023	
2.000	-0.156	-0.050	
2.005	-0.247	-0.125	
2.010	-0.564	-0.195	
2.015	-0.233	-0.268	
2.020	0.091	-0.298	
2.025	-0.323	-0.274	
2.030	-0.230	-0.249	
2.035	0.413	-0.207	
2.040	-0.064	-0.124	
2.045	-0.233	-0.058	
2.050	0.393	-0.021	
2.055	0.288	0.040	
2.060	-0.230	0.096	
2.065	0.245	0.110	
2.070	0.630	0.137	
2.075	-0.113	0.190	
2.080	0.003	0.199	
2.085	0.672	0.193	
2.090	0.128	0.223	
2.095	-0.151	0.232	
2.100	0.628	0.215	
2.105	0.537	0.242	
2.110	-0.124	0.284	
2.115	0.431	0.285	
2.120	0.755	0.302	
2.125	0.009	0.345	
2.130	0.184	0.346	
2.135	0.922	0.343	
2.140	0.287	0.385	
2.145	-0.075	0.400	
2.150	0.727	0.374	
2.155	0.594	0.383	
2.160	-0.096	0.400	
2.165	0.445	0.374	
2.170	0.788	0.365	
2.175	-0.055	0.384	
2.180	0.047	0.356	
2.185	0.649	0.308	
2.190	0.020	0.291	
2.195	-0.249	0.249	
2.200	0.341	0.176	
2.205	0.244	0.139	
2.210	-0.267	0.121	
2.215	0.082	0.080	
2.220	0.433	0.061	
2.225	-0.242	0.072	
2.230	-0.178	0.054	
2.235	0.410	0.026	
2.240	-0.110	0.032	
2.245	-0.310	0.024	
2.250	0.250	-0.007	
2.255	0.119	-0.006	
2.260	-0.345	0.002	
2.265	-0.006	-0.021	
2.270	0.370	-0.028	
2.275	-0.299	-0.006	
2.280	-0.253	-0.016	
2.285	0.256	-0.044	
2.290	-0.182	-0.046	
2.295	-0.401	-0.061	
2.300	0.047	-0.101	
2.305	-0.061	-0.119	
2.310	-0.451	-0.130	
2.315	-0.175	-0.164	
2.320	0.099	-0.183	
2.325	-0.398	-0.176	
2.330	-0.349	-0.188	
2.335	0.123	-0.204	
2.340	-0.258	-0.191	
2.345	-0.470	-0.189	
2.350	-0.026	-0.210	
2.355	-0.041	-0.207	
2.360	-0.410	-0.192	
2.365	-0.069	-0.191	
2.370	0.349	-0.165	
2.375	-0.287	-0.106	
2.380	-0.370	-0.085	
2.385	-0.125	-0.112	
2.390	-0.465	-0.155	
2.395	-0.669	-0.227	
2.400	-0.274	-0.316	
2.405	-0.267	-0.370	
2.410	-0.564	-0.392	
2.415	-0.253	-0.406	
2.420	0.113	-0.383	
2.425	-0.366	-0.318	
2.430	-0.303	-0.271	
2.435	0.256	-0.230	
2.440	-0.148	-0.165	
2.445	-0.375	-0.122	
2.450	0.168	-0.112	
2.455	0.148	-0.081	
2.460	-0.351	-0.046	
2.465	-0.012	-0.046	
2.470	0.430	-0.035	
2.475	-0.232	0.005	
2.480	-0.185	0.014	
2.485	0.441	0.008	
2.490	-0.047	0.034	
2.495	-0.317	0.042	
2.500	0.251	0.018	
2.505	0.287	0.025	
2.510	-0.242	0.050	
2.515	0.180	0.053	
2.520	0.598	0.077	
2.525	-0.140	0.132	
2.530	-0.087	0.145	
2.535	0.604	0.138	
2.540	0.067	0.164	
2.545	-0.235	0.170	
2.550	0.375	0.140	
2.555	0.268	0.136	
2.560	-0.279	0.138	
2.565	0.064	0.103	
2.570	0.348	0.076	
2.575	-0.288	0.070	
2.580	-0.262	0.032	
2.585	0.290	-0.017	
2.590	-0.162	-0.031	
2.595	-0.415	-0.053	
2.600	0.070	-0.096	
2.605	0.021	-0.111	
2.610	-0.412	-0.112	
2.615	-0.162	-0.136	
2.620	0.212	-0.147	
2.625	-0.337	-0.129	
2.630	-0.310	-0.132	
2.635	0.206	-0.143	
2.640	-0.201	-0.127	
2.645	-0.419	-0.124	
2.650	0.084	-0.144	
2.655	0.035	-0.137	
2.660	-0.401	-0.120	
2.665	-0.151	-0.132	
2.670	0.186	-0.137	
2.675	-0.339	-0.120	
2.680	-0.317	-0.126	
2.685	0.163	-0.144	
2.690	-0.241	-0.136	
2.695	-0.442	-0.143	
2.700	-0.014	-0.172	
2.705	-0.063	-0.179	
2.710	-0.479	-0.178	
2.715	-0.235	-0.203	
2.720	0.096	-0.217	
2.725	-0.370	-0.203	
2.730	-0.357	-0.205	
2.735	0.117	-0.212	
2.740	-0.224	-0.193	
2.745	-0.415	-0.182	
2.750	0.149	-0.185	
2.755	0.166	-0.150	
2.760	-0.323	-0.098	
2.765	-0.020	-0.077	
2.770	0.183	-0.061	
2.775	-0.468	-0.048	
2.780	-0.531	-0.091	
2.785	-0.182	-0.175	
2.790	-0.413	-0.244	
2.795	-0.584	-0.306	
2.800	-0.125	-0.359	
2.805	-0.056	-0.360	
2.810	-0.422	-0.324	
2.815	-0.104	-0.293	
2.820	0.373	-0.236	
2.825	-0.221	-0.145	
2.830	-0.177	-0.084	
2.835	0.486	-0.043	
2.840	0.030	0.023	
2.845	-0.246	0.065	
2.850	0.398	0.071	
2.855	0.376	0.104	
2.860	-0.238	0.143	
2.865	0.123	0.137	
2.870	0.556	0.134	
2.875	-0.133	0.160	
2.880	-0.082	0.152	
2.885	0.692	0.138	
2.890	0.221	0.177	
2.895	-0.149	0.208	
2.900	0.623	0.210	
2.905	0.636	0.253	
2.910	-0.085	0.310	
2.915	0.404	0.321	
2.920	0.880	0.341	
2.925	0.094	0.392	
2.930	0.067	0.398	
2.935	0.823	0.375	
2.940	0.352	0.390	
2.945	-0.124	0.390	
2.950	0.500	0.346	
2.955	0.466	0.323	
2.960	-0.198	0.308	
2.965	0.148	0.255	
2.970	0.558	0.211	
2.975	-0.159	0.202	
2.980	-0.146	0.165	
2.985	0.521	0.119	
2.990	-0.029	0.115	
2.995	-0.305	0.099	
3.000	0.274	0.056	
3.005	0.288	0.049	
3.010	-0.273	0.063	
3.015	0.055	0.049	
3.020	0.477	0.048	
3.025	-0.186	0.076	
3.030	-0.206	0.071	
3.035	0.386	0.046	
3.040	-0.047	0.049	
3.045	-0.300	0.041	
3.050	0.204	0.009	
3.055	0.209	0.006	
3.060	-0.313	0.018	
3.065	-0.064	-0.002	
3.070	0.348	-0.015	
3.075	-0.258	-0.002	
3.080	-0.284	-0.016	
3.085	0.265	-0.046	
3.090	-0.137	-0.047	
3.095	-0.381	-0.057	
3.100	0.090	-0.089	
3.105	0.107	-0.092	
3.110	-0.390	-0.081	
3.115	-0.162	-0.099	
3.120	0.279	-0.110	
3.125	-0.308	-0.091	
3.130	-0.296	-0.094	
3.135	0.337	-0.104	
3.140	-0.078	-0.076	
3.145	-0.313	-0.054	
3.150	0.329	-0.051	
3.155	0.366	-0.007	
3.160	-0.363	0.048	
3.165	-0.267	0.037	
3.170	-0.084	-0.020	
3.175	-0.515	-0.088	
3.180	-0.517	-0.181	
3.185	-0.082	-0.268	
3.190	-0.268	-0.306	
3.195	-0.430	-0.316	
3.200	0.122	-0.309	
3.205	0.239	-0.246	
3.210	-0.284	-0.155	
3.215	0.038	-0.095	
3.220	0.581	-0.031	
3.225	-0.145	0.055	
3.230	-0.175	0.092	
3.235	0.524	0.095	
3.240	0.078	0.123	
3.245	-0.262	0.133	
3.250	0.375	0.110	
3.255	0.447	0.122	
3.260	-0.206	0.154	
3.265	0.154	0.150	
3.270	0.662	0.156	
3.275	-0.079	0.194	
3.280	-0.070	0.197	
3.285	0.732	0.186	
3.290	0.338	0.226	
3.295	-0.143	0.262	
3.300	0.582	0.261	
3.305	0.660	0.290	
3.310	-0.067	0.335	
3.315	0.355	0.336	
3.320	0.840	0.343	
3.325	0.058	0.380	
3.330	-0.015	0.371	
3.335	0.732	0.333	
3.340	0.265	0.332	
3.345	-0.197	0.320	
3.350	0.434	0.269	
3.355	0.482	0.247	
3.360	-0.221	0.245	
3.365	0.056	0.203	
3.370	0.535	0.165	
3.375	-0.157	0.160	
3.380	-0.178	0.131	
3.385	0.386	0.086	
3.390	-0.031	0.074	
3.395	-0.313	0.055	
3.400	0.235	0.016	
3.405	0.317	0.016	
3.410	-0.285	0.040	
3.415	-0.017	0.032	
3.420	0.408	0.026	
3.425	-0.206	0.046	
3.430	-0.238	0.036	
3.435	0.393	0.011	
3.440	-0.012	0.022	
3.445	-0.328	0.025	
3.450	0.184	-0.001	
3.455	0.221	-0.001	
3.460	-0.335	0.013	
3.465	-0.105	-0.009	
3.470	0.346	-0.027	
3.475	-0.255	-0.015	
3.480	-0.311	-0.029	
3.485	0.207	-0.061	
3.490	-0.145	-0.068	
3.495	-0.459	-0.083	
3.500	-0.040	-0.126	
3.505	0.044	-0.147	
3.510	-0.416	-0.147	
3.515	-0.210	-0.166	
3.520	0.227	-0.173	
3.525	-0.285	-0.146	
3.530	-0.302	-0.136	
3.535	0.296	-0.133	
3.540	-0.037	-0.096	
3.545	-0.303	-0.063	
3.550	0.312	-0.051	
3.555	0.189	-0.012	
3.560	-0.468	0.020	
3.565	-0.331	-0.018	
3.570	-0.145	-0.092	
3.575	-0.521	-0.164	
3.580	-0.520	-0.248	
3.585	-0.021	-0.317	
3.590	-0.232	-0.329	
3.595	-0.424	-0.316	
3.600	0.143	-0.294	
3.605	0.303	-0.222	
3.610	-0.284	-0.124	
3.615	-0.018	-0.066	
3.620	0.558	-0.014	
3.625	-0.131	0.058	
3.630	-0.185	0.088	
3.635	0.540	0.089	
3.640	0.180	0.122	
3.645	-0.241	0.146	
3.650	0.341	0.133	
3.655	0.476	0.144	
3.660	-0.197	0.174	
3.665	0.122	0.166	
3.670	0.645	0.163	
3.675	-0.037	0.195	
3.680	-0.075	0.198	
3.685	0.677	0.185	
3.690	0.354	0.220	
3.695	-0.127	0.255	
3.700	0.581	0.256	
3.705	0.678	0.289	
3.710	-0.079	0.337	
3.715	0.276	0.335	
3.720	0.832	0.333	
3.725	0.026	0.361	
3.730	-0.076	0.345	
3.735	0.625	0.297	
3.740	0.213	0.282	
3.745	-0.220	0.261	
3.750	0.380	0.210	
3.755	0.412	0.190	
3.760	-0.253	0.189	
3.765	-0.020	0.148	
3.770	0.505	0.110	
3.775	-0.166	0.110	
3.780	-0.227	0.086	
3.785	0.412	0.049	
3.790	0.029	0.051	
3.795	-0.335	0.048	
3.800	0.148	0.015	
3.805	0.288	0.008	
3.810	-0.303	0.022	
3.815	-0.076	0.007	
3.820	0.425	-0.003	
3.825	-0.229	0.017	
3.830	-0.294	0.009	
3.835	0.308	-0.020	
3.840	-0.027	-0.017	
3.845	-0.346	-0.017	
3.850	0.123	-0.041	
3.855	0.247	-0.039	
3.860	-0.340	-0.018	
3.865	-0.162	-0.031	
3.870	0.241	-0.052	
3.875	-0.290	-0.051	
3.880	-0.348	-0.073	
3.885	0.172	-0.108	
3.890	-0.114	-0.110	
3.895	-0.459	-0.115	
3.900	-0.081	-0.148	
3.905	0.059	-0.162	
3.910	-0.401	-0.156	
3.915	-0.204	-0.168	
3.920	0.232	-0.170	
3.925	-0.274	-0.140	
3.930	-0.302	-0.128	
3.935	0.355	-0.123	
3.940	0.065	-0.075	
3.945	-0.322	-0.031	
3.950	-0.050	-0.032	
3.955	-0.111	-0.051	
3.960	-0.590	-0.091	
3.965	-0.447	-0.174	
3.970	-0.143	-0.258	
3.975	-0.448	-0.306	
3.980	-0.421	-0.341	
3.985	0.163	-0.347	
3.990	-0.061	-0.293	
3.995	-0.345	-0.226	
4.000	0.174	-0.179	
4.005	0.346	-0.106	
4.010	-0.264	-0.023	
4.015	-0.027	0.012	
4.020	0.543	0.038	
4.025	-0.107	0.087	
4.030	-0.183	0.102	
4.035	0.538	0.094	
4.040	0.192	0.122	
4.045	-0.235	0.145	
4.050	0.386	0.135	
4.055	0.530	0.154	
4.060	-0.169	0.194	
4.065	0.128	0.193	
4.070	0.750	0.195	
4.075	0.070	0.238	
4.080	-0.026	0.256	
4.085	0.768	0.253	
4.090	0.433	0.295	
4.095	-0.102	0.332	
4.100	0.596	0.327	
4.105	0.706	0.347	
4.110	-0.069	0.382	
4.115	0.244	0.366	
4.120	0.771	0.346	
4.125	0.004	0.355	
4.130	-0.111	0.324	
4.135	0.619	0.268	
4.140	0.258	0.255	
4.145	-0.224	0.243	
4.150	0.348	0.200	
4.155	0.451	0.184	
4.160	-0.247	0.189	
4.165	-0.063	0.151	
4.170	0.476	0.110	
4.175	-0.188	0.101	
4.180	-0.277	0.070	
4.185	0.329	0.023	
4.190	-0.003	0.013	
4.195	-0.357	0.004	
4.200	0.035	-0.033	
4.205	0.137	-0.051	
4.210	-0.345	-0.053	
4.215	-0.143	-0.076	
4.220	0.366	-0.085	
4.225	-0.217	-0.057	
4.230	-0.296	-0.050	
4.235	0.306	-0.060	
4.240	-0.017	-0.040	
4.245	-0.383	-0.028	
4.250	0.029	-0.052	
4.255	0.122	-0.063	
4.260	-0.399	-0.063	
4.265	-0.233	-0.093	
4.270	0.197	-0.122	
4.275	-0.317	-0.121	
4.280	-0.401	-0.137	
4.285	0.087	-0.167	
4.290	-0.148	-0.168	
4.295	-0.444	-0.168	
4.300	-0.082	-0.188	
4.305	0.070	-0.189	
4.310	-0.396	-0.169	
4.315	-0.217	-0.172	
4.320	0.239	-0.169	
4.325	-0.247	-0.135	
4.330	-0.296	-0.119	
4.335	0.402	-0.110	
4.340	-0.055	-0.064	
4.345	-0.497	-0.039	
4.350	-0.291	-0.081	
4.355	-0.264	-0.149	
4.360	-0.646	-0.222	
4.365	-0.459	-0.311	
4.370	-0.084	-0.373	
4.375	-0.375	-0.381	
4.380	-0.407	-0.372	
4.385	0.189	-0.345	
4.390	0.001	-0.269	
4.395	-0.314	-0.188	
4.400	0.216	-0.132	
4.405	0.415	-0.056	
4.410	-0.233	0.029	
4.415	-0.008	0.063	
4.420	0.598	0.084	
4.425	-0.064	0.131	
4.430	-0.165	0.144	
4.435	0.559	0.131	
4.440	0.270	0.157	
4.445	-0.215	0.182	
4.450	0.386	0.171	
4.455	0.562	0.185	
4.460	-0.169	0.220	
4.465	0.105	0.212	
4.470	0.739	0.205	
4.475	0.056	0.239	
4.480	-0.101	0.246	
4.485	0.657	0.228	
4.490	0.404	0.252	
4.495	-0.116	0.279	
4.500	0.561	0.275	
4.505	0.707	0.301	
4.510	-0.090	0.345	
4.515	0.200	0.337	
4.520	0.796	0.322	
4.525	0.068	0.341	
4.530	-0.140	0.324	
4.535	0.509	0.269	
4.540	0.137	0.240	
4.545	-0.314	0.202	
4.550	0.151	0.131	
4.555	0.317	0.086	
4.560	-0.305	0.070	
4.565	-0.149	0.029	
4.570	0.386	-0.007	
4.575	-0.209	-0.004	
4.580	-0.316	-0.018	
4.585	0.290	-0.047	
4.590	0.008	-0.040	
4.595	-0.366	-0.032	
4.600	0.038	-0.054	
4.605	0.242	-0.057	
4.610	-0.334	-0.039	
4.615	-0.186	-0.051	
4.620	0.294	-0.067	
4.625	-0.236	-0.055	
4.630	-0.364	-0.064	
4.635	0.102	-0.096	
4.640	-0.120	-0.107	
4.645	-0.424	-0.119	
4.650	-0.032	-0.149	
4.655	0.158	-0.151	
4.660	-0.355	-0.128	
4.665	-0.204	-0.128	
4.670	0.274	-0.127	
4.675	-0.276	-0.100	
4.680	-0.454	-0.102	
4.685	-0.005	-0.139	
4.690	-0.198	-0.162	
4.695	-0.502	-0.185	
4.700	-0.128	-0.224	
4.705	0.023	-0.235	
4.710	-0.436	-0.222	
4.715	-0.310	-0.227	
4.720	0.168	-0.229	
4.725	-0.221	-0.197	
4.730	-0.296	-0.171	
4.735	0.285	-0.151	
4.740	-0.188	-0.109	
4.745	-0.634	-0.102	
4.750	-0.334	-0.162	
4.755	-0.218	-0.232	
4.760	-0.592	-0.286	
4.765	-0.390	-0.343	
4.770	0.050	-0.368	
4.775	-0.281	-0.339	
4.780	-0.345	-0.302	
4.785	0.271	-0.260	
4.790	0.064	-0.179	
4.795	-0.319	-0.103	
4.800	0.154	-0.066	
4.805	0.422	-0.016	
4.810	-0.201	0.048	
4.815	-0.040	0.070	
4.820	0.526	0.079	
4.825	-0.076	0.112	
4.830	-0.204	0.115	
4.835	0.526	0.098	
4.840	0.267	0.122	
4.845	-0.204	0.151	
4.850	0.416	0.150	
4.855	0.677	0.182	
4.860	-0.085	0.242	
4.865	0.181	0.258	
4.870	0.825	0.270	
4.875	0.119	0.315	
4.880	-0.081	0.325	
4.885	0.762	0.303	
4.890	0.485	0.325	
4.895	-0.120	0.350	
4.900	0.491	0.332	
4.905	0.681	0.333	
4.910	-0.127	0.352	
4.915	0.096	0.320	
4.920	0.686	0.280	
4.925	-0.037	0.275	
4.930	-0.203	0.240	
4.935	0.457	0.180	
4.940	0.136	0.156	
4.945	-0.296	0.135	
4.950	0.168	0.087	
4.955	0.296	0.063	
4.960	-0.290	0.061	
4.965	-0.156	0.028	
4.970	0.366	-0.004	
4.975	-0.185	-0.001	
4.980	-0.319	-0.014	
4.985	0.253	-0.044	
4.990	0.001	-0.042	
4.995	-0.422	-0.041	
5.000	-0.046	-0.074	
5.005	0.227	-0.090	
5.010	-0.335	-0.078	
5.015	-0.191	-0.087	
5.020	0.360	-0.091	
5.025	-0.201	-0.062	
5.030	-0.317	-0.053	
5.035	0.198	-0.068	
5.040	-0.096	-0.063	
5.045	-0.442	-0.070	
5.050	-0.090	-0.109	
5.055	0.158	-0.130	
5.060	-0.378	-0.123	
5.065	-0.261	-0.137	
5.070	0.187	-0.151	
5.075	-0.293	-0.138	
5.080	-0.419	-0.144	
5.085	0.102	-0.168	
5.090	-0.076	-0.162	
5.095	-0.393	-0.150	
5.100	-0.012	-0.157	
5.105	0.165	-0.143	
5.110	-0.331	-0.110	
5.115	-0.143	-0.103	
5.120	0.427	-0.090	
5.125	-0.175	-0.042	
5.130	-0.348	-0.023	
5.135	0.004	-0.050	
5.140	-0.255	-0.081	
5.145	-0.587	-0.132	
5.150	-0.239	-0.209	
5.155	-0.085	-0.262	
5.160	-0.464	-0.280	
5.165	-0.281	-0.297	
5.170	0.258	-0.286	
5.175	-0.236	-0.228	
5.180	-0.325	-0.182	
5.185	0.380	-0.149	
5.190	0.223	-0.075	
5.195	-0.274	0.000	
5.200	0.187	0.031	
5.205	0.476	0.067	
5.210	-0.201	0.116	
5.215	-0.020	0.121	
5.220	0.607	0.118	
5.225	-0.018	0.149	
5.230	-0.188	0.154	
5.235	0.534	0.135	
5.240	0.314	0.156	
5.245	-0.215	0.181	
5.250	0.363	0.171	
5.255	0.678	0.190	
5.260	-0.108	0.238	
5.265	0.102	0.244	
5.270	0.776	0.242	
5.275	0.136	0.279	
5.280	-0.089	0.290	
5.285	0.722	0.273	
5.290	0.524	0.301	
5.295	-0.127	0.335	
5.300	0.465	0.324	
5.305	0.741	0.330	
5.310	-0.133	0.356	
5.315	0.003	0.325	
5.320	0.631	0.273	
5.325	-0.029	0.254	
5.330	-0.221	0.214	
5.335	0.453	0.154	
5.340	0.189	0.136	
5.345	-0.281	0.128	
5.350	0.200	0.092	
5.355	0.430	0.083	
5.360	-0.226	0.102	
5.365	-0.101	0.086	
5.370	0.530	0.068	
5.375	-0.095	0.086	
5.380	-0.241	0.084	
5.385	0.381	0.058	
5.390	0.133	0.065	
5.395	-0.308	0.072	
5.400	0.172	0.048	
5.405	0.410	0.048	
5.410	-0.244	0.073	
5.415	-0.107	0.064	
5.420	0.485	0.049	
5.425	-0.110	0.067	
5.430	-0.297	0.062	
5.435	0.270	0.028	
5.440	0.012	0.018	
5.445	-0.401	0.005	
5.450	-0.009	-0.039	
5.455	0.283	-0.060	
5.460	-0.319	-0.048	
5.465	-0.235	-0.061	
5.470	0.259	-0.080	
5.475	-0.217	-0.072	
5.480	-0.348	-0.078	
5.485	0.190	-0.101	
5.490	-0.012	-0.092	
5.495	-0.383	-0.081	
5.500	0.023	-0.095	
5.505	0.404	-0.082	
5.510	-0.246	-0.033	
5.515	-0.104	-0.012	
5.520	0.378	-0.003	
5.525	-0.297	0.019	
5.530	-0.557	-0.010	
5.535	-0.175	-0.095	
5.540	-0.296	-0.175	
5.545	-0.582	-0.244	
5.550	-0.241	-0.312	
5.555	0.023	-0.336	
5.560	-0.378	-0.312	
5.565	-0.223	-0.287	
5.570	0.393	-0.241	
5.575	-0.134	-0.155	
5.580	-0.271	-0.090	
5.585	0.398	-0.055	
5.590	0.171	0.005	
5.595	-0.302	0.053	
5.600	0.168	0.055	
5.605	0.445	0.068	
5.610	-0.218	0.100	
5.615	-0.072	0.095	
5.620	0.538	0.083	
5.625	-0.067	0.105	
5.630	-0.217	0.105	
5.635	0.442	0.083	
5.640	0.285	0.101	
5.645	-0.207	0.128	
5.650	0.287	0.125	
5.655	0.596	0.145	
5.660	-0.113	0.191	
5.665	0.085	0.199	
5.670	0.687	0.201	
5.675	0.097	0.237	
5.680	-0.151	0.244	
5.685	0.562	0.219	
5.690	0.334	0.227	
5.695	-0.206	0.236	
5.700	0.314	0.208	
5.705	0.567	0.201	
5.710	-0.177	0.220	
5.715	-0.078	0.194	
5.720	0.491	0.153	
5.725	-0.120	0.141	
5.730	-0.285	0.107	
5.735	0.261	0.051	
5.740	0.096	0.029	
5.745	-0.337	0.019	
5.750	0.058	-0.014	
5.755	0.323	-0.023	
5.760	-0.281	-0.003	
5.765	-0.182	-0.013	
5.770	0.370	-0.027	
5.775	-0.163	-0.011	
5.780	-0.310	-0.014	
5.785	0.216	-0.038	
5.790	0.049	-0.035	
5.795	-0.348	-0.029	
5.800	0.044	-0.048	
5.805	0.372	-0.044	
5.810	-0.274	-0.010	
5.815	-0.169	-0.007	
5.820	0.312	-0.018	
5.825	-0.186	-0.008	
5.830	-0.370	-0.021	
5.835	0.131	-0.061	
5.840	-0.041	-0.076	
5.845	-0.396	-0.085	
5.850	-0.101	-0.117	
5.855	0.126	-0.133	
5.860	-0.375	-0.127	
5.865	-0.271	-0.141	
5.870	0.247	-0.153	
5.875	-0.235	-0.132	
5.880	-0.399	-0.125	
5.885	0.126	-0.141	
5.890	0.011	-0.129	
5.895	-0.355	-0.109	
5.900	0.102	-0.106	
5.905	0.471	-0.071	
5.910	-0.235	-0.003	
5.915	-0.247	0.020	
5.920	0.032	-0.005	
5.925	-0.413	-0.044	
5.930	-0.549	-0.117	
5.935	-0.124	-0.206	
5.940	-0.203	-0.259	
5.945	-0.518	-0.285	
5.950	-0.142	-0.309	
5.955	0.253	-0.289	
5.960	-0.320	-0.224	
5.965	-0.157	-0.176	
5.970	0.433	-0.129	
5.975	-0.101	-0.054	
5.980	-0.268	-0.009	
5.985	0.415	0.005	
5.990	0.277	0.049	
5.995	-0.250	0.095	
6.000	0.218	0.100	
6.005	0.517	0.116	
6.010	-0.171	0.153	
6.015	-0.063	0.148	
6.020	0.587	0.131	
6.025	0.008	0.151	
6.030	-0.178	0.152	
6.035	0.558	0.134	
6.040	0.380	0.161	
6.045	-0.178	0.197	
6.050	0.364	0.197	
6.055	0.719	0.219	
6.060	-0.060	0.269	
6.065	0.110	0.277	
6.070	0.777	0.273	
6.075	0.163	0.305	
6.080	-0.116	0.310	
6.085	0.633	0.281	
6.090	0.442	0.289	
6.095	-0.197	0.300	
6.100	0.273	0.265	
6.105	0.549	0.240	
6.110	-0.198	0.238	
6.115	-0.127	0.194	
6.120	0.495	0.139	
6.125	-0.084	0.122	
6.130	-0.285	0.093	
6.135	0.306	0.046	
6.140	0.163	0.037	
6.145	-0.308	0.040	
6.150	0.099	0.018	
6.155	0.419	0.018	
6.160	-0.252	0.047	
6.165	-0.172	0.040	
6.170	0.412	0.021	
6.175	-0.108	0.033	
6.180	-0.293	0.028	
6.185	0.309	0.003	
6.190	0.171	0.013	
6.195	-0.314	0.031	
6.200	0.076	0.016	
6.205	0.381	0.016	
6.210	-0.288	0.039	
6.215	-0.229	0.023	
6.220	0.290	-0.010	
6.225	-0.191	-0.017	
6.230	-0.374	-0.039	
6.235	0.142	-0.079	
6.240	-0.018	-0.089	
6.245	-0.451	-0.094	
6.250	-0.122	-0.127	
6.255	0.244	-0.141	
6.260	-0.325	-0.119	
6.265	-0.210	-0.115	
6.270	0.425	-0.107	
6.275	-0.093	-0.058	
6.280	-0.265	-0.024	
6.285	0.497	-0.009	
6.290	0.361	0.050	
6.295	-0.217	0.117	
6.300	0.360	0.141	
6.305	0.308	0.164	
6.310	-0.454	0.169	
6.315	-0.473	0.091	
6.320	-0.143	-0.035	
6.325	-0.424	-0.146	
6.330	-0.555	-0.244	
6.335	-0.137	-0.325	
6.340	-0.160	-0.350	
6.345	-0.479	-0.341	
6.350	-0.134	-0.332	
6.355	0.227	-0.290	
6.360	-0.325	-0.216	
6.365	-0.191	-0.168	
6.370	0.456	-0.125	
6.375	-0.060	-0.050	
6.380	-0.267	-0.001	
6.385	0.405	0.015	
6.390	0.267	0.057	
6.395	-0.319	0.096	
6.400	0.055	0.083	
6.405	0.415	0.071	
6.410	-0.213	0.082	
6.415	-0.120	0.067	
6.420	0.505	0.049	
6.425	-0.034	0.071	
6.430	-0.203	0.079	
6.435	0.511	0.072	
6.440	0.364	0.110	
6.445	-0.239	0.154	
6.450	0.283	0.155	
6.455	0.709	0.175	
6.460	-0.101	0.226	
6.465	-0.009	0.233	
6.470	0.630	0.216	
6.475	0.047	0.228	
6.480	-0.169	0.218	
6.485	0.485	0.181	
6.490	0.242	0.178	
6.495	-0.290	0.175	
6.500	0.151	0.132	
6.505	0.479	0.110	
6.510	-0.241	0.118	
6.515	-0.139	0.094	
6.520	0.578	0.068	
6.525	-0.060	0.086	
6.530	-0.320	0.086	
6.535	0.212	0.047	
6.540	0.120	0.030	
6.545	-0.279	0.024	
6.550	0.195	0.005	
6.555	0.549	0.026	
6.560	-0.177	0.082	
6.565	-0.117	0.099	
6.570	0.547	0.095	
6.575	0.040	0.122	
6.580	-0.204	0.133	
6.585	0.503	0.119	
6.590	0.424	0.147	
6.595	-0.206	0.187	
6.600	0.241	0.183	
6.605	0.527	0.185	
6.610	-0.236	0.200	
6.615	-0.157	0.166	
6.620	0.570	0.120	
6.625	0.059	0.123	
6.630	-0.223	0.123	
6.635	0.357	0.099	
6.640	0.151	0.099	
6.645	-0.361	0.094	
6.650	0.014	0.049	
6.655	0.386	0.020	
6.660	-0.252	0.026	
6.665	-0.127	0.014	
6.670	0.564	0.007	
6.675	0.113	0.055	
6.680	-0.163	0.096	
6.685	0.495	0.112	
6.690	0.309	0.152	
6.695	-0.285	0.181	
6.700	-0.023	0.149	
6.705	0.096	0.095	
6.710	-0.448	0.038	
6.715	-0.377	-0.051	
6.720	0.194	-0.132	
6.725	-0.169	-0.155	
6.730	-0.303	-0.158	
6.735	0.351	-0.150	
6.740	0.303	-0.086	
6.745	-0.207	-0.004	
6.750	0.314	0.046	
6.755	0.608	0.110	
6.760	-0.124	0.186	
6.765	0.029	0.207	
6.770	0.736	0.210	
6.775	0.190	0.251	
6.780	-0.116	0.271	
6.785	0.704	0.261	
6.790	0.576	0.295	
6.795	-0.127	0.336	
6.800	0.410	0.329	
6.805	0.768	0.332	
6.810	0.023	0.363	
6.815	0.280	0.362	
6.820	0.959	0.365	
6.825	0.340	0.417	
6.830	-0.117	0.436	
6.835	0.642	0.399	
6.840	0.500	0.384	
6.845	-0.116	0.376	
6.850	0.441	0.336	
6.855	0.779	0.325	
6.860	-0.046	0.350	
6.865	0.047	0.331	
6.870	0.684	0.295	
6.875	0.011	0.288	
6.880	-0.250	0.253	
6.885	0.453	0.187	
6.890	0.309	0.165	
6.895	-0.288	0.160	
6.900	0.047	0.117	
6.905	0.421	0.085	
6.910	-0.200	0.086	
6.915	-0.175	0.063	
6.920	0.296	0.028	
6.925	-0.215	0.015	
6.930	-0.390	-0.018	
6.935	0.267	-0.065	
6.940	0.157	-0.062	
6.945	-0.352	-0.039	
6.950	-0.038	-0.047	
6.955	0.317	-0.048	
6.960	-0.284	-0.025	
6.965	-0.244	-0.032	
6.970	0.297	-0.051	
6.975	-0.145	-0.042	
6.980	-0.326	-0.044	
6.985	0.213	-0.064	
6.990	0.091	-0.053	
6.995	-0.412	-0.039	
7.000	-0.149	-0.065	
7.005	0.116	-0.094	
7.010	-0.381	-0.104	
7.015	-0.297	-0.134	
7.020	0.165	-0.161	
7.025	-0.236	-0.154	
7.030	-0.451	-0.157	
7.035	0.055	-0.180	
7.040	0.102	-0.169	
7.045	-0.412	-0.139	
7.050	-0.142	-0.139	
7.055	0.128	-0.139	
7.060	-0.381	-0.126	
7.065	-0.319	-0.140	
7.070	0.255	-0.157	
7.075	-0.136	-0.133	
7.080	-0.316	-0.113	
7.085	0.062	-0.114	
7.090	-0.182	-0.111	
7.095	-0.611	-0.131	
7.100	-0.334	-0.197	
7.105	-0.105	-0.257	
7.110	-0.500	-0.287	
7.115	-0.410	-0.319	
7.120	0.137	-0.330	
7.125	-0.191	-0.290	
7.130	-0.329	-0.243	
7.135	0.255	-0.203	
7.140	0.142	-0.131	
7.145	-0.345	-0.062	
7.150	0.102	-0.037	
7.155	0.529	-0.001	
7.160	-0.201	0.062	
7.165	-0.166	0.079	
7.170	0.447	0.069	
7.175	-0.076	0.082	
7.180	-0.313	0.072	
7.185	0.259	0.033	
7.190	0.210	0.027	
7.195	-0.285	0.038	
7.200	0.068	0.022	
7.205	0.497	0.027	
7.210	-0.163	0.065	
7.215	-0.098	0.076	
7.220	0.623	0.079	
7.225	0.094	0.124	
7.230	-0.197	0.151	
7.235	0.544	0.148	
7.240	0.468	0.182	
7.245	-0.175	0.225	
7.250	0.218	0.220	
7.255	0.514	0.213	
7.260	-0.177	0.219	
7.265	-0.163	0.182	
7.270	0.468	0.128	
7.275	-0.037	0.112	
7.280	-0.322	0.087	
7.285	0.229	0.038	
7.290	0.161	0.020	
7.295	-0.346	0.017	
7.300	-0.064	-0.015	
7.305	0.306	-0.036	
7.310	-0.285	-0.027	
7.315	-0.252	-0.042	
7.320	0.251	-0.066	
7.325	-0.182	-0.062	
7.330	-0.396	-0.073	
7.335	0.068	-0.106	
7.340	0.037	-0.113	
7.345	-0.381	-0.107	
7.350	-0.105	-0.122	
7.355	0.209	-0.125	
7.360	-0.334	-0.104	
7.365	-0.282	-0.109	
7.370	0.149	-0.126	
7.375	-0.226	-0.120	
7.380	-0.424	-0.129	
7.385	0.009	-0.159	
7.390	-0.085	-0.167	
7.395	-0.474	-0.169	
7.400	-0.218	-0.197	
7.405	0.040	-0.214	
7.410	-0.406	-0.209	
7.415	-0.370	-0.220	
7.420	0.052	-0.235	
7.425	-0.259	-0.224	
7.430	-0.447	-0.219	
7.435	-0.049	-0.232	
7.440	-0.090	-0.224	
7.445	-0.460	-0.211	
7.450	-0.169	-0.220	
7.455	0.186	-0.212	
7.460	-0.294	-0.173	
7.465	-0.220	-0.151	
7.470	0.390	-0.128	
7.475	-0.177	-0.075	
7.480	-0.561	-0.060	
7.485	-0.276	-0.114	
7.490	-0.313	-0.185	
7.495	-0.625	-0.256	
7.500	-0.316	-0.331	
7.505	-0.082	-0.368	
7.510	-0.425	-0.360	
7.515	-0.351	-0.349	
7.520	0.190	-0.323	
7.525	-0.154	-0.256	
7.530	-0.345	-0.197	
7.535	0.218	-0.160	
7.540	0.242	-0.098	
7.545	-0.290	-0.030	
7.550	0.061	-0.003	
7.555	0.479	0.024	
7.560	-0.163	0.073	
7.565	-0.113	0.085	
7.570	0.562	0.084	
7.575	0.059	0.117	
7.580	-0.207	0.133	
7.585	0.431	0.120	
7.590	0.405	0.141	
7.595	-0.194	0.173	
7.600	0.264	0.170	
7.605	0.710	0.185	
7.610	-0.031	0.235	
7.615	0.033	0.248	
7.620	0.733	0.244	
7.625	0.247	0.277	
7.630	-0.128	0.293	
7.635	0.552	0.272	
7.640	0.552	0.282	
7.645	-0.131	0.305	
7.650	0.285	0.287	
7.655	0.675	0.276	
7.660	-0.108	0.290	
7.665	-0.116	0.260	
7.670	0.518	0.205	
7.675	-0.002	0.182	
7.680	-0.296	0.148	
7.685	0.239	0.087	
7.690	0.236	0.061	
7.695	-0.297	0.056	
7.700	-0.023	0.025	
7.705	0.346	0.006	
7.710	-0.252	0.014	
7.715	-0.255	-0.003	
7.720	0.317	-0.032	
7.725	-0.069	-0.025	
7.730	-0.313	-0.024	
7.735	0.201	-0.041	
7.740	0.183	-0.030	
7.745	-0.314	-0.007	
7.750	-0.053	-0.017	
7.755	0.335	-0.023	
7.760	-0.232	-0.004	
7.765	-0.218	-0.010	
7.770	0.323	-0.027	
7.775	-0.133	-0.017	
7.780	-0.354	-0.022	
7.785	0.102	-0.055	
7.790	0.064	-0.065	
7.795	-0.386	-0.065	
7.800	-0.131	-0.092	
7.805	0.223	-0.108	
7.810	-0.319	-0.096	
7.815	-0.290	-0.105	
7.820	0.247	-0.120	
7.825	-0.166	-0.103	
7.830	-0.406	-0.099	
7.835	0.075	-0.120	
7.840	0.085	-0.116	
7.845	-0.355	-0.098	
7.850	-0.058	-0.102	
7.855	0.405	-0.089	
7.860	-0.185	-0.039	
7.865	-0.200	-0.015	
7.870	0.178	-0.020	
7.875	-0.299	-0.024	
7.880	-0.567	-0.068	
7.885	-0.226	-0.153	
7.890	-0.218	-0.224	
7.895	-0.518	-0.272	
7.900	-0.235	-0.314	
7.905	0.099	-0.318	
7.910	-0.282	-0.276	
7.915	-0.265	-0.238	
7.920	0.337	-0.197	
7.925	-0.061	-0.125	
7.930	-0.299	-0.070	
7.935	0.279	-0.048	
7.940	0.320	-0.001	
7.945	-0.235	0.053	
7.950	0.110	0.069	
7.955	0.537	0.087	
7.960	-0.131	0.129	
7.965	-0.104	0.134	
7.970	0.617	0.124	
7.975	0.120	0.154	
7.980	-0.195	0.171	
7.985	0.445	0.156	
7.990	0.459	0.173	
7.995	-0.163	0.205	
8.000	0.221	0.199	
8.005	0.663	0.203	
8.010	-0.052	0.236	
8.015	-0.026	0.234	
8.020	0.712	0.217	
8.025	0.261	0.246	
8.030	-0.134	0.265	
8.035	0.544	0.250	
8.040	0.486	0.263	
8.045	-0.166	0.283	
8.050	0.201	0.257	
8.055	0.585	0.235	
8.060	-0.117	0.238	
8.065	-0.130	0.206	
8.070	0.436	0.155	
8.075	-0.055	0.133	
8.080	-0.300	0.099	
8.085	0.224	0.044	
8.090	0.206	0.025	
8.095	-0.299	0.027	
8.100	-0.037	0.003	
8.105	0.372	-0.009	
8.110	-0.213	0.009	
8.115	-0.213	0.004	
8.120	0.354	-0.012	
8.125	-0.072	0.001	
8.130	-0.317	0.003	
8.135	0.197	-0.020	
8.140	0.194	-0.016	
8.145	-0.290	0.003	
8.150	0.023	-0.005	
8.155	0.366	-0.002	
8.160	-0.262	0.022	
8.165	-0.264	0.010	
8.170	0.270	-0.021	
8.175	-0.108	-0.025	
8.180	-0.364	-0.037	
8.185	0.114	-0.069	
8.190	0.088	-0.074	
8.195	-0.386	-0.068	
8.200	-0.146	-0.090	
8.205	0.213	-0.106	
8.210	-0.308	-0.096	
8.215	-0.308	-0.106	
8.220	0.245	-0.122	
8.225	-0.169	-0.107	
8.230	-0.413	-0.104	
8.235	0.067	-0.125	
8.240	0.110	-0.121	
8.245	-0.345	-0.099	
8.250	-0.026	-0.098	
8.255	0.466	-0.076	
8.260	-0.163	-0.017	
8.265	-0.262	0.010	
8.270	0.011	-0.010	
8.275	-0.349	-0.046	
8.280	-0.578	-0.113	
8.285	-0.183	-0.203	
8.290	-0.163	-0.261	
8.295	-0.485	-0.287	
8.300	-0.172	-0.307	
8.305	0.241	-0.288	
8.310	-0.239	-0.222	
8.315	-0.207	-0.169	
8.320	0.415	-0.123	
8.325	-0.029	-0.050	
8.330	-0.265	-0.001	
8.335	0.315	0.012	
8.340	0.346	0.049	
8.345	-0.220	0.095	
8.350	0.143	0.102	
8.355	0.617	0.118	
8.360	-0.108	0.163	
8.365	-0.116	0.168	
8.370	0.576	0.150	
8.375	0.126	0.168	
8.380	-0.191	0.175	
8.385	0.491	0.157	
8.390	0.546	0.181	
8.395	-0.117	0.227	
8.400	0.309	0.236	
8.405	0.768	0.256	
8.410	0.055	0.306	
8.415	0.027	0.316	
8.420	0.707	0.300	
8.425	0.251	0.315	
8.430	-0.120	0.315	
8.435	0.543	0.282	
8.440	0.523	0.282	
8.445	-0.156	0.297	
8.450	0.206	0.268	
8.455	0.634	0.246	
8.460	-0.104	0.253	
8.465	-0.125	0.223	
8.470	0.469	0.173	
8.475	0.020	0.155	
8.480	-0.279	0.128	
8.485	0.270	0.079	
8.490	0.253	0.064	
8.495	-0.284	0.067	
8.500	0.009	0.042	
8.505	0.436	0.030	
8.510	-0.194	0.050	
8.515	-0.200	0.044	
8.520	0.370	0.023	
8.525	-0.047	0.031	
8.530	-0.310	0.027	
8.535	0.218	-0.000	
8.540	0.236	0.003	
8.545	-0.285	0.023	
8.550	-0.027	0.012	
8.555	0.389	0.006	
8.560	-0.210	0.027	
8.565	-0.229	0.021	
8.570	0.296	-0.004	
8.575	-0.111	-0.003	
8.580	-0.360	-0.016	
8.585	0.055	-0.055	
8.590	0.050	-0.073	
8.595	-0.389	-0.079	
8.600	-0.143	-0.108	
8.605	0.218	-0.123	
8.610	-0.305	-0.109	
8.615	-0.320	-0.114	
8.620	0.178	-0.131	
8.625	-0.177	-0.122	
8.630	-0.416	-0.122	
8.635	-0.014	-0.147	
8.640	0.056	-0.150	
8.645	-0.339	-0.135	
8.650	-0.037	-0.133	
8.655	0.483	-0.104	
8.660	-0.154	-0.035	
8.665	-0.285	0.000	
8.670	-0.005	-0.016	
8.675	-0.337	-0.050	
8.680	-0.590	-0.116	
8.685	-0.215	-0.207	
8.690	-0.174	-0.269	
8.695	-0.503	-0.299	
8.700	-0.212	-0.322	
8.705	0.223	-0.307	
8.710	-0.258	-0.244	
8.715	-0.244	-0.193	
8.720	0.311	-0.152	
8.725	-0.064	-0.089	
8.730	-0.306	-0.048	
8.735	0.229	-0.039	
8.740	0.255	-0.009	
8.745	-0.276	0.029	
8.750	0.021	0.029	
8.755	0.468	0.035	
8.760	-0.157	0.068	
8.765	-0.156	0.072	
8.770	0.492	0.062	
8.775	0.090	0.088	
8.780	-0.241	0.104	
8.785	0.376	0.092	
8.790	0.448	0.114	
8.795	-0.172	0.154	
8.800	0.245	0.162	
8.805	0.692	0.182	
8.810	-0.035	0.232	
8.815	-0.066	0.240	
8.820	0.617	0.220	
8.825	0.151	0.230	
8.830	-0.210	0.226	
8.835	0.390	0.187	
8.840	0.413	0.179	
8.845	-0.213	0.188	
8.850	0.059	0.160	
8.855	0.501	0.136	
8.860	-0.165	0.140	
8.865	-0.188	0.115	
8.870	0.386	0.075	
8.875	-0.056	0.066	
8.880	-0.320	0.047	
8.885	0.157	0.004	
8.890	0.174	-0.010	
8.895	-0.328	-0.007	
8.900	-0.110	-0.032	
8.905	0.332	-0.048	
8.910	-0.252	-0.033	
8.915	-0.262	-0.039	
8.920	0.267	-0.059	
8.925	-0.108	-0.050	
8.930	-0.346	-0.050	
8.935	0.140	-0.071	
8.940	0.137	-0.065	
8.945	-0.328	-0.046	
8.950	-0.099	-0.057	
8.955	0.276	-0.063	
8.960	-0.261	-0.046	
8.965	-0.261	-0.052	
8.970	0.250	-0.070	
8.975	-0.151	-0.062	
8.980	-0.399	-0.067	
8.985	0.033	-0.100	
8.990	0.009	-0.112	
8.995	-0.404	-0.114	
9.000	-0.178	-0.139	
9.005	0.184	-0.152	
9.010	-0.313	-0.136	
9.015	-0.320	-0.138	
9.020	0.187	-0.149	
9.025	-0.183	-0.133	
9.030	-0.422	-0.128	
9.035	0.067	-0.146	
9.040	0.087	-0.138	
9.045	-0.358	-0.113	
9.050	-0.044	-0.112	
9.055	0.485	-0.088	
9.060	-0.169	-0.026	
9.065	-0.273	0.004	
9.070	0.082	-0.011	
9.075	-0.342	-0.038	
9.080	-0.611	-0.099	
9.085	-0.188	-0.192	
9.090	-0.165	-0.256	
9.095	-0.528	-0.288	
9.100	-0.203	-0.316	
9.105	0.242	-0.304	
9.110	-0.299	-0.242	
9.115	-0.247	-0.195	
9.120	0.407	-0.154	
9.125	-0.079	-0.083	
9.130	-0.317	-0.035	
9.135	0.328	-0.024	
9.140	0.270	0.015	
9.145	-0.302	0.057	
9.150	0.061	0.054	
9.155	0.518	0.059	
9.160	-0.182	0.092	
9.165	-0.149	0.092	
9.170	0.529	0.077	
9.175	0.017	0.098	
9.180	-0.258	0.105	
9.185	0.439	0.086	
9.190	0.437	0.109	
9.195	-0.210	0.152	
9.200	0.261	0.157	
9.205	0.691	0.177	
9.210	-0.063	0.227	
9.215	-0.031	0.235	
9.220	0.724	0.223	
9.225	0.190	0.250	
9.230	-0.180	0.260	
9.235	0.505	0.232	
9.240	0.469	0.236	
9.245	-0.209	0.251	
9.250	0.197	0.223	
9.255	0.599	0.205	
9.260	-0.169	0.215	
9.265	-0.156	0.184	
9.270	0.489	0.136	
9.275	-0.060	0.122	
9.280	-0.334	0.095	
9.285	0.248	0.042	
9.290	0.215	0.025	
9.295	-0.335	0.028	
9.300	-0.037	0.002	
9.305	0.364	-0.014	
9.310	-0.270	0.001	
9.315	-0.235	-0.011	
9.320	0.392	-0.031	
9.325	-0.105	-0.015	
9.330	-0.351	-0.012	
9.335	0.216	-0.035	
9.340	0.145	-0.030	
9.345	-0.369	-0.015	
9.350	-0.075	-0.036	
9.355	0.344	-0.048	
9.360	-0.288	-0.030	
9.365	-0.277	-0.039	
9.370	0.334	-0.060	
9.375	-0.143	-0.047	
9.380	-0.421	-0.050	
9.385	0.030	-0.086	
9.390	-0.003	-0.105	
9.395	-0.456	-0.114	
9.400	-0.221	-0.150	
9.405	0.122	-0.176	
9.410	-0.361	-0.172	
9.415	-0.378	-0.183	
9.420	0.059	-0.204	
9.425	-0.210	-0.198	
9.430	-0.467	-0.197	
9.435	-0.090	-0.217	
9.440	-0.038	-0.218	
9.445	-0.425	-0.206	
9.450	-0.191	-0.212	
9.455	0.259	-0.201	
9.460	-0.247	-0.155	
9.465	-0.271	-0.127	
9.470	0.055	-0.124	
9.475	-0.332	-0.122	
9.480	-0.633	-0.156	
9.485	-0.302	-0.232	
9.490	-0.262	-0.295	
9.495	-0.573	-0.337	
9.500	-0.310	-0.374	
9.505	0.093	-0.374	
9.510	-0.305	-0.325	
9.515	-0.319	-0.279	
9.520	0.200	-0.240	
9.525	-0.107	-0.177	
9.530	-0.342	-0.130	
9.535	0.155	-0.112	
9.540	0.204	-0.075	
9.545	-0.300	-0.030	
9.550	-0.052	-0.024	
9.555	0.412	-0.016	
9.560	-0.175	0.019	
9.565	-0.169	0.027	
9.570	0.485	0.025	
9.575	0.111	0.061	
9.580	-0.215	0.091	
9.585	0.361	0.090	
9.590	0.396	0.115	
9.595	-0.220	0.149	
9.600	0.139	0.143	
9.605	0.654	0.146	
9.610	-0.038	0.186	
9.615	-0.044	0.196	
9.620	0.684	0.190	
9.625	0.245	0.225	
9.630	-0.159	0.247	
9.635	0.506	0.233	
9.640	0.526	0.246	
9.645	-0.169	0.271	
9.650	0.155	0.250	
9.655	0.599	0.227	
9.660	-0.117	0.231	
9.665	-0.156	0.200	
9.670	0.476	0.150	
9.675	0.049	0.137	
9.680	-0.305	0.117	
9.685	0.230	0.071	
9.690	0.259	0.054	
9.695	-0.322	0.055	
9.700	-0.072	0.025	
9.705	0.425	0.003	
9.710	-0.213	0.018	
9.715	-0.239	0.011	
9.720	0.378	-0.009	
9.725	-0.049	0.004	
9.730	-0.323	0.008	
9.735	0.236	-0.013	
9.740	0.262	-0.002	
9.745	-0.291	0.026	
9.750	0.011	0.020	
9.755	0.486	0.024	
9.760	-0.171	0.059	
9.765	-0.177	0.063	
9.770	0.511	0.053	
9.775	0.093	0.082	
9.780	-0.277	0.100	
9.785	0.264	0.081	
9.790	0.291	0.082	
9.795	-0.277	0.094	
9.800	0.011	0.070	
9.805	0.437	0.054	
9.810	-0.192	0.068	
9.815	-0.210	0.055	
9.820	0.370	0.028	
9.825	-0.037	0.032	
9.830	-0.293	0.028	
9.835	0.285	0.005	
9.840	0.329	0.021	
9.845	-0.274	0.056	
9.850	0.003	0.053	
9.855	0.515	0.053	
9.860	-0.142	0.084	
9.865	-0.124	0.089	
9.870	0.648	0.087	
9.875	0.169	0.132	
9.880	-0.358	0.158	
9.885	-0.055	0.115	
9.890	-0.122	0.045	
9.895	-0.512	-0.035	
9.900	-0.297	-0.135	
9.905	0.061	-0.207	
9.910	-0.337	-0.228	
9.915	-0.297	-0.238	
9.920	0.323	-0.227	
9.925	-0.026	-0.165	
9.930	-0.284	-0.105	
9.935	0.315	-0.068	
9.940	0.412	-0.003	
9.945	-0.217	0.072	
9.950	0.163	0.103	
9.955	0.636	0.133	
9.960	-0.082	0.186	
9.965	-0.116	0.194	
9.970	0.613	0.176	
9.975	0.197	0.195	
9.980	-0.185	0.206	
9.985	0.498	0.189	
9.990	0.540	0.208	
9.995	-0.154	0.244	
10.000	0.268	0.240	
10.005	0.794	0.248	
10.010	0.030	0.293	
10.015	-0.005	0.301	
10.020	0.803	0.287	
10.025	0.363	0.318	
10.030	-0.125	0.339	
10.035	0.561	0.318	
10.040	0.611	0.323	
10.045	-0.119	0.343	
10.050	0.248	0.318	
10.055	0.701	0.297	
10.060	-0.060	0.305	
10.065	-0.105	0.275	
10.070	0.572	0.223	
10.075	0.096	0.209	
10.080	-0.259	0.187	
10.085	0.317	0.136	
10.090	0.329	0.119	
10.095	-0.282	0.120	
10.100	-0.021	0.087	
10.105	0.433	0.060	
10.110	-0.203	0.065	
10.115	-0.229	0.046	
10.120	0.337	0.013	
10.125	-0.096	0.011	
10.130	-0.354	-0.002	
10.135	0.139	-0.039	
10.140	0.201	-0.044	
10.145	-0.331	-0.028	
10.150	-0.089	-0.041	
10.155	0.344	-0.047	
10.160	-0.250	-0.025	
10.165	-0.265	-0.029	
10.170	0.340	-0.046	
10.175	-0.072	-0.030	
10.180	-0.340	-0.023	
10.185	0.197	-0.041	
10.190	0.226	-0.030	
10.195	-0.340	-0.004	
10.200	-0.101	-0.017	
10.205	0.352	-0.028	
10.210	-0.252	-0.013	
10.215	-0.305	-0.024	
10.220	0.184	-0.056	
10.225	-0.174	-0.067	
10.230	-0.428	-0.087	
10.235	0.014	-0.128	
10.240	0.072	-0.139	
10.245	-0.381	-0.130	
10.250	-0.128	-0.139	
10.255	0.224	-0.137	
10.260	-0.322	-0.111	
10.265	-0.334	-0.112	
10.270	0.230	-0.127	
10.275	-0.107	-0.110	
10.280	-0.326	-0.096	
10.285	0.271	-0.094	
10.290	0.299	-0.051	
10.295	-0.378	0.001	
10.300	-0.276	-0.007	
10.305	-0.104	-0.057	
10.310	-0.518	-0.118	
10.315	-0.526	-0.203	
10.320	-0.102	-0.284	
10.325	-0.274	-0.318	
10.330	-0.476	-0.328	
10.335	0.033	-0.328	
10.340	0.157	-0.278	
10.345	-0.332	-0.202	
10.350	-0.090	-0.155	
10.355	0.412	-0.108	
10.360	-0.227	-0.041	
10.365	-0.256	-0.015	
10.370	0.343	-0.017	
10.375	-0.076	0.001	
10.380	-0.348	0.002	
10.385	0.186	-0.024	
10.390	0.259	-0.020	
10.395	-0.300	0.005	
10.400	-0.031	-0.001	
10.405	0.494	0.002	
10.410	-0.175	0.039	
10.415	-0.195	0.048	
10.420	0.511	0.041	
10.425	0.075	0.071	
10.430	-0.267	0.091	
10.435	0.364	0.080	
10.440	0.419	0.100	
10.445	-0.203	0.138	
10.450	0.128	0.137	
10.455	0.627	0.143	
10.460	-0.089	0.179	
10.465	-0.145	0.178	
10.470	0.486	0.149	
10.475	0.076	0.150	
10.480	-0.259	0.139	
10.485	0.309	0.103	
10.490	0.334	0.098	
10.495	-0.239	0.111	
10.500	0.035	0.092	
10.505	0.472	0.080	
10.510	-0.195	0.095	
10.515	-0.209	0.079	
10.520	0.367	0.046	
10.525	-0.038	0.043	
10.530	-0.316	0.033	
10.535	0.224	0.001	
10.540	0.213	0.001	
10.545	-0.337	0.016	
10.550	-0.085	-0.005	
10.555	0.308	-0.024	
10.560	-0.250	-0.016	
10.565	-0.247	-0.029	
10.570	0.335	-0.049	
10.575	-0.060	-0.033	
10.580	-0.329	-0.024	
10.585	0.180	-0.040	
10.590	0.215	-0.030	
10.595	-0.299	-0.004	
10.600	-0.047	-0.011	
10.605	0.372	-0.013	
10.610	-0.227	0.010	
10.615	-0.246	0.004	
10.620	0.282	-0.020	
10.625	-0.162	-0.020	
10.630	-0.421	-0.038	
10.635	-0.061	-0.089	
10.640	-0.127	-0.129	
10.645	-0.550	-0.164	
10.650	-0.340	-0.224	
10.655	-0.095	-0.273	
10.660	-0.474	-0.293	
10.665	-0.442	-0.317	
10.670	0.050	-0.331	
10.675	-0.235	-0.303	
10.680	-0.441	-0.273	
10.685	0.104	-0.255	
10.690	0.227	-0.199	
10.695	-0.271	-0.122	
10.700	0.137	-0.069	
10.705	0.648	-0.001	
10.710	-0.259	0.087	
10.715	-0.406	0.102	
10.720	-0.089	0.036	
10.725	-0.366	-0.046	
10.730	-0.584	-0.143	
10.735	-0.174	-0.243	
10.740	-0.110	-0.295	
10.745	-0.454	-0.306	
10.750	-0.130	-0.307	
10.755	0.344	-0.269	
10.760	-0.246	-0.185	
10.765	-0.197	-0.126	
10.770	0.512	-0.080	
10.775	0.078	-0.000	
10.780	-0.268	0.057	
10.785	0.344	0.070	
10.790	0.349	0.098	
10.795	-0.252	0.131	
10.800	0.111	0.121	
10.805	0.614	0.120	
10.810	-0.113	0.155	
10.815	-0.110	0.156	
10.820	0.607	0.140	
10.825	0.168	0.165	
10.830	-0.191	0.182	
10.835	0.506	0.170	
10.840	0.553	0.196	
10.845	-0.143	0.241	
10.850	0.328	0.245	
10.855	0.745	0.261	
10.860	-0.026	0.303	
10.865	-0.012	0.299	
10.870	0.710	0.272	
10.875	0.259	0.286	
10.880	-0.154	0.289	
10.885	0.453	0.256	
10.890	0.445	0.248	
10.895	-0.186	0.251	
10.900	0.110	0.215	
10.905	0.512	0.183	
10.910	-0.168	0.178	
10.915	-0.180	0.142	
10.920	0.444	0.095	
10.925	0.038	0.088	
10.930	-0.300	0.079	
10.935	0.224	0.044	
10.940	0.242	0.037	
10.945	-0.303	0.045	
10.950	-0.041	0.022	
10.955	0.355	0.005	
10.960	-0.252	0.015	
10.965	-0.281	-0.002	
10.970	0.268	-0.036	
10.975	-0.125	-0.040	
10.980	-0.352	-0.049	
10.985	0.143	-0.077	
10.990	0.201	-0.070	
10.995	-0.332	-0.044	
11.000	-0.101	-0.049	
11.005	0.283	-0.054	
11.010	-0.271	-0.037	
11.015	-0.276	-0.047	
11.020	0.238	-0.070	
11.025	-0.125	-0.065	
11.030	-0.380	-0.069	
11.035	0.059	-0.096	
11.040	0.075	-0.100	
11.045	-0.386	-0.092	
11.050	-0.157	-0.110	
11.055	0.244	-0.120	
11.060	-0.268	-0.100	
11.065	-0.253	-0.097	
11.070	0.242	-0.102	
11.075	-0.136	-0.081	
11.080	-0.380	-0.075	
11.085	0.081	-0.096	
11.090	0.148	-0.091	
11.095	-0.288	-0.068	
11.100	0.067	-0.061	
11.105	0.553	-0.028	
11.110	-0.076	0.044	
11.115	-0.096	0.086	
11.120	0.354	0.094	
11.125	-0.175	0.101	
11.130	-0.459	0.065	
11.135	-0.120	-0.021	
11.140	-0.099	-0.096	
11.145	-0.428	-0.150	
11.150	-0.168	-0.201	
11.155	0.270	-0.211	
11.160	-0.235	-0.171	
11.165	-0.191	-0.138	
11.170	0.521	-0.100	
11.175	0.139	-0.018	
11.180	-0.221	0.053	
11.185	0.480	0.086	
11.190	0.518	0.144	
11.195	-0.183	0.208	
11.200	0.242	0.219	
11.205	0.726	0.231	
11.210	-0.043	0.271	
11.215	-0.050	0.268	
11.220	0.713	0.243	
11.225	0.334	0.265	
11.230	-0.134	0.284	
11.235	0.530	0.269	
11.240	0.573	0.281	
11.245	-0.079	0.309	
11.250	0.311	0.299	
11.255	0.791	0.300	
11.260	0.122	0.339	
11.265	0.134	0.349	
11.270	0.802	0.345	
11.275	0.373	0.376	
11.280	-0.053	0.391	
11.285	0.590	0.366	
11.290	0.587	0.365	
11.295	-0.060	0.376	
11.300	0.309	0.348	
11.305	0.646	0.325	
11.310	-0.046	0.326	
11.315	-0.079	0.288	
11.320	0.529	0.231	
11.325	0.070	0.209	
11.330	-0.252	0.179	
11.335	0.223	0.121	
11.340	0.251	0.091	
11.345	-0.291	0.079	
11.350	-0.078	0.040	
11.355	0.296	0.007	
11.360	-0.226	0.002	
11.365	-0.218	-0.018	
11.370	0.303	-0.041	
11.375	-0.072	-0.030	
11.380	-0.300	-0.026	
11.385	0.166	-0.042	
11.390	0.163	-0.033	
11.395	-0.310	-0.015	
11.400	-0.078	-0.027	
11.405	0.279	-0.037	
11.410	-0.235	-0.024	
11.415	-0.238	-0.033	
11.420	0.262	-0.052	
11.425	-0.119	-0.044	
11.430	-0.351	-0.047	
11.435	0.101	-0.073	
11.440	0.090	-0.075	
11.445	-0.363	-0.066	
11.450	-0.146	-0.086	
11.455	0.148	-0.103	
11.460	-0.326	-0.100	
11.465	-0.323	-0.119	
11.470	0.084	-0.147	
11.475	-0.215	-0.151	
11.480	-0.436	-0.161	
11.485	-0.066	-0.189	
11.490	-0.056	-0.197	
11.495	-0.412	-0.192	
11.500	-0.183	-0.203	
11.505	0.197	-0.198	
11.510	-0.253	-0.161	
11.515	-0.241	-0.138	
11.520	0.335	-0.120	
11.525	-0.114	-0.074	
11.530	-0.459	-0.055	
11.535	-0.220	-0.092	
11.540	-0.268	-0.148	
11.545	-0.602	-0.210	
11.550	-0.381	-0.288	
11.555	-0.130	-0.342	
11.560	-0.412	-0.354	
11.565	-0.349	-0.355	
11.570	0.166	-0.333	
11.575	-0.101	-0.266	
11.580	-0.290	-0.199	
11.585	0.163	-0.154	
11.590	0.200	-0.092	
11.595	-0.282	-0.032	
11.600	-0.002	-0.013	
11.605	0.413	0.004	
11.610	-0.171	0.042	
11.615	-0.159	0.049	
11.620	0.419	0.040	
11.625	0.000	0.060	
11.630	-0.247	0.066	
11.635	0.320	0.049	
11.640	0.383	0.068	
11.645	-0.175	0.106	
11.650	0.184	0.115	
11.655	0.646	0.137	
11.660	0.012	0.192	
11.665	-0.041	0.212	
11.670	0.631	0.209	
11.675	0.268	0.237	
11.680	-0.130	0.255	
11.685	0.520	0.242	
11.690	0.518	0.256	
11.695	-0.153	0.281	
11.700	0.212	0.261	
11.705	0.633	0.244	
11.710	-0.116	0.254	
11.715	-0.139	0.224	
11.720	0.436	0.170	
11.725	-0.023	0.145	
11.730	-0.285	0.110	
11.735	0.224	0.056	
11.740	0.183	0.035	
11.745	-0.319	0.031	
11.750	-0.099	-0.003	
11.755	0.274	-0.030	
11.760	-0.250	-0.028	
11.765	-0.247	-0.044	
11.770	0.290	-0.065	
11.775	-0.139	-0.054	
11.780	-0.375	-0.056	
11.785	0.085	-0.083	
11.790	0.111	-0.086	
11.795	-0.337	-0.072	
11.800	-0.089	-0.083	
11.805	0.236	-0.085	
11.810	-0.274	-0.066	
11.815	-0.259	-0.070	
11.820	0.270	-0.084	
11.825	-0.134	-0.068	
11.830	-0.351	-0.064	
11.835	0.122	-0.083	
11.840	0.114	-0.077	
11.845	-0.357	-0.060	
11.850	-0.104	-0.073	
11.855	0.213	-0.082	
11.860	-0.325	-0.071	
11.865	-0.296	-0.087	
11.870	0.165	-0.113	
11.875	-0.198	-0.113	
11.880	-0.421	-0.122	
11.885	0.000	-0.152	
11.890	-0.012	-0.159	
11.895	-0.459	-0.155	
11.900	-0.259	-0.179	
11.905	-0.035	-0.205	
11.910	-0.497	-0.218	
11.915	-0.544	-0.257	
11.920	-0.182	-0.310	
11.925	-0.369	-0.338	
11.930	-0.544	-0.357	
11.935	-0.195	-0.376	
11.940	-0.291	-0.373	
11.945	-0.710	-0.371	
11.950	-0.497	-0.404	
11.955	-0.244	-0.435	
11.960	-0.549	-0.441	
11.965	-0.480	-0.447	
11.970	0.024	-0.435	
11.975	-0.194	-0.378	
11.980	-0.334	-0.313	
11.985	0.250	-0.251	
11.990	0.259	-0.155	
11.995	-0.265	-0.056	
12.000	0.107	-0.004	
12.005	0.617	0.048	
12.010	-0.078	0.123	
12.015	-0.050	0.156	
12.020	0.698	0.168	
12.025	0.256	0.216	
12.030	-0.134	0.250	
12.035	0.642	0.249	
12.040	0.674	0.287	
12.045	-0.061	0.342	
12.050	0.451	0.352	
12.055	0.880	0.371	
12.060	0.096	0.419	
12.065	0.158	0.421	
12.070	0.947	0.408	
12.075	0.424	0.440	
12.080	-0.037	0.456	
12.085	0.815	0.433	
12.090	0.808	0.453	
12.095	-0.020	0.490	
12.100	0.505	0.477	
12.105	0.957	0.472	
12.110	0.126	0.500	
12.115	0.123	0.483	
12.120	0.861	0.443	
12.125	0.233	0.437	
12.130	-0.194	0.406	
12.135	0.537	0.333	
12.140	0.500	0.300	
12.145	-0.221	0.289	
12.150	0.105	0.237	
12.155	0.561	0.194	
12.160	-0.171	0.185	
12.165	-0.157	0.150	
12.170	0.515	0.106	
12.175	-0.018	0.104	
12.180	-0.313	0.092	
12.185	0.283	0.052	
12.190	0.256	0.047	
12.195	-0.316	0.057	
12.200	0.008	0.035	
12.205	0.488	0.026	
12.210	-0.250	0.051	
12.215	-0.249	0.042	
12.220	0.416	0.014	
12.225	-0.102	0.020	
12.230	-0.326	0.014	
12.235	0.264	-0.014	
12.240	0.219	-0.006	
12.245	-0.335	0.016	
12.250	-0.069	-0.000	
12.255	0.349	-0.014	
12.260	-0.271	-0.001	
12.265	-0.281	-0.017	
12.270	0.258	-0.048	
12.275	-0.136	-0.050	
12.280	-0.393	-0.060	
12.285	0.046	-0.095	
12.290	0.070	-0.105	
12.295	-0.398	-0.100	
12.300	-0.142	-0.120	
12.305	0.302	-0.125	
12.310	-0.314	-0.097	
12.315	-0.316	-0.095	
12.320	0.277	-0.108	
12.325	-0.058	-0.086	
12.330	-0.271	-0.064	
12.335	0.421	-0.050	
12.340	0.367	0.010	
12.345	-0.377	0.073	
12.350	-0.256	0.061	
12.355	-0.075	-0.001	
12.360	-0.477	-0.071	
12.365	-0.453	-0.162	
12.370	-0.056	-0.242	
12.375	-0.255	-0.275	
12.380	-0.407	-0.286	
12.385	0.146	-0.280	
12.390	0.229	-0.221	
12.395	-0.276	-0.136	
12.400	0.052	-0.081	
12.405	0.534	-0.023	
12.410	-0.137	0.055	
12.415	-0.137	0.089	
12.420	0.543	0.095	
12.425	0.081	0.128	
12.430	-0.220	0.143	
12.435	0.392	0.126	
12.440	0.386	0.138	
12.445	-0.218	0.162	
12.450	0.183	0.150	
12.455	0.640	0.153	
12.460	-0.102	0.189	
12.465	-0.049	0.189	
12.470	0.741	0.180	
12.475	0.267	0.220	
12.480	-0.116	0.253	
12.485	0.633	0.253	
12.490	0.663	0.290	
12.495	-0.053	0.343	
12.500	0.346	0.347	
12.505	0.767	0.350	
12.510	-0.021	0.372	
12.515	-0.027	0.347	
12.520	0.691	0.299	
12.525	0.142	0.289	
12.530	-0.246	0.264	
12.535	0.381	0.205	
12.540	0.389	0.180	
12.545	-0.233	0.177	
12.550	0.081	0.143	
12.555	0.517	0.120	
12.560	-0.204	0.129	
12.565	-0.198	0.105	
12.570	0.418	0.066	
12.575	-0.044	0.062	
12.580	-0.323	0.048	
12.585	0.218	0.011	
12.590	0.204	0.005	
12.595	-0.285	0.017	
12.600	0.004	0.003	
12.605	0.441	0.003	
12.610	-0.209	0.034	
12.615	-0.221	0.034	
12.620	0.352	0.013	
12.625	-0.081	0.020	
12.630	-0.325	0.013	
12.635	0.239	-0.016	
12.640	0.209	-0.010	
12.645	-0.320	0.010	
12.650	-0.047	-0.004	
12.655	0.300	-0.015	
12.660	-0.302	-0.007	
12.665	-0.293	-0.029	
12.670	0.195	-0.066	
12.675	-0.203	-0.077	
12.680	-0.435	-0.098	
12.685	-0.008	-0.140	
12.690	-0.046	-0.158	
12.695	-0.444	-0.162	
12.700	-0.203	-0.187	
12.705	0.120	-0.198	
12.710	-0.358	-0.182	
12.715	-0.355	-0.184	
12.720	0.154	-0.194	
12.725	-0.166	-0.172	
12.730	-0.367	-0.155	
12.735	0.238	-0.149	
12.740	0.282	-0.100	
12.745	-0.389	-0.039	
12.750	-0.306	-0.038	
12.755	-0.185	-0.086	
12.760	-0.570	-0.151	
12.765	-0.538	-0.241	
12.770	-0.169	-0.325	
12.775	-0.378	-0.364	
12.780	-0.506	-0.382	
12.785	0.001	-0.384	
12.790	0.110	-0.333	
12.795	-0.352	-0.252	
12.800	-0.047	-0.196	
12.805	0.408	-0.133	
12.810	-0.207	-0.052	
12.815	-0.159	-0.010	
12.820	0.497	0.011	
12.825	0.006	0.058	
12.830	-0.252	0.083	
12.835	0.410	0.075	
12.840	0.370	0.101	
12.845	-0.239	0.137	
12.850	0.189	0.133	
12.855	0.646	0.143	
12.860	-0.101	0.185	
12.865	-0.064	0.189	
12.870	0.683	0.177	
12.875	0.223	0.209	
12.880	-0.120	0.232	
12.885	0.640	0.230	
12.890	0.655	0.270	
12.895	-0.113	0.325	
12.900	0.323	0.326	
12.905	0.738	0.326	
12.910	-0.043	0.346	
12.915	-0.024	0.321	
12.920	0.683	0.277	
12.925	0.158	0.273	
12.930	-0.198	0.258	
12.935	0.378	0.209	
12.940	0.245	0.184	
12.945	-0.313	0.163	
12.950	-0.006	0.105	
12.955	0.376	0.059	
12.960	-0.262	0.048	
12.965	-0.249	0.016	
12.970	0.283	-0.025	
12.975	-0.172	-0.034	
12.980	-0.387	-0.053	
12.985	0.084	-0.092	
12.990	0.030	-0.103	
12.995	-0.413	-0.102	
13.000	-0.143	-0.126	
13.005	0.168	-0.139	
13.010	-0.357	-0.127	
13.015	-0.345	-0.139	
13.020	0.111	-0.163	
13.025	-0.235	-0.160	
13.030	-0.438	-0.167	
13.035	0.014	-0.189	
13.040	-0.050	-0.187	
13.045	-0.427	-0.175	
13.050	-0.177	-0.187	
13.055	0.094	-0.190	
13.060	-0.407	-0.174	
13.065	-0.375	-0.185	
13.070	0.079	-0.206	
13.075	-0.264	-0.200	
13.080	-0.460	-0.203	
13.085	-0.043	-0.223	
13.090	-0.060	-0.220	
13.095	-0.453	-0.206	
13.100	-0.195	-0.215	
13.105	0.068	-0.215	
13.110	-0.375	-0.196	
13.115	-0.302	-0.195	
13.120	0.267	-0.192	
13.125	-0.168	-0.152	
13.130	-0.352	-0.124	
13.135	0.288	-0.114	
13.140	0.171	-0.070	
13.145	-0.454	-0.027	
13.150	-0.268	-0.048	
13.155	-0.119	-0.100	
13.160	-0.546	-0.156	
13.165	-0.488	-0.233	
13.170	-0.031	-0.300	
13.175	-0.331	-0.318	
13.180	-0.500	-0.323	
13.185	0.081	-0.324	
13.190	0.049	-0.278	
13.195	-0.386	-0.213	
13.200	-0.037	-0.177	
13.205	0.416	-0.129	
13.210	-0.226	-0.055	
13.215	-0.160	-0.018	
13.220	0.511	0.002	
13.225	-0.038	0.050	
13.230	-0.267	0.072	
13.235	0.457	0.064	
13.240	0.390	0.096	
13.245	-0.249	0.140	
13.250	0.195	0.140	
13.255	0.608	0.148	
13.260	-0.143	0.184	
13.265	-0.067	0.179	
13.270	0.732	0.165	
13.275	0.148	0.198	
13.280	-0.172	0.218	
13.285	0.605	0.206	
13.290	0.546	0.235	
13.295	-0.142	0.278	
13.300	0.407	0.279	
13.305	0.794	0.295	
13.310	-0.067	0.338	
13.315	0.027	0.328	
13.320	0.747	0.297	
13.325	0.088	0.301	
13.330	-0.212	0.280	
13.335	0.444	0.223	
13.340	0.250	0.197	
13.345	-0.308	0.177	
13.350	0.043	0.119	
13.355	0.393	0.077	
13.360	-0.256	0.068	
13.365	-0.204	0.037	
13.370	0.398	0.002	
13.375	-0.104	0.007	
13.380	-0.305	0.003	
13.385	0.317	-0.018	
13.390	0.256	0.002	
13.395	-0.285	0.037	
13.400	0.072	0.036	
13.405	0.389	0.040	
13.410	-0.249	0.062	
13.415	-0.229	0.046	
13.420	0.384	0.015	
13.425	-0.119	0.016	
13.430	-0.317	0.006	
13.435	0.276	-0.022	
13.440	0.149	-0.014	
13.445	-0.340	0.003	
13.450	-0.037	-0.015	
13.455	0.349	-0.024	
13.460	-0.284	-0.007	
13.465	-0.258	-0.019	
13.470	0.236	-0.047	
13.475	-0.185	-0.051	
13.480	-0.390	-0.068	
13.485	0.085	-0.104	
13.490	0.014	-0.112	
13.495	-0.413	-0.109	
13.500	-0.128	-0.131	
13.505	0.233	-0.138	
13.510	-0.311	-0.114	
13.515	-0.239	-0.111	
13.520	0.300	-0.111	
13.525	-0.131	-0.080	
13.530	-0.290	-0.062	
13.535	0.376	-0.057	
13.540	0.325	-0.007	
13.545	-0.375	0.048	
13.550	-0.224	0.037	
13.555	-0.101	-0.018	
13.560	-0.508	-0.085	
13.565	-0.442	-0.174	
13.570	-0.064	-0.253	
13.575	-0.303	-0.285	
13.580	-0.410	-0.298	
13.585	0.145	-0.295	
13.590	0.149	-0.238	
13.595	-0.270	-0.157	
13.600	0.158	-0.100	
13.605	0.456	-0.030	
13.610	-0.148	0.053	
13.615	-0.089	0.087	
13.620	0.553	0.098	
13.625	0.062	0.135	
13.630	-0.192	0.151	
13.635	0.486	0.139	
13.640	0.386	0.161	
13.645	-0.182	0.191	
13.650	0.337	0.188	
13.655	0.652	0.204	
13.660	-0.055	0.248	
13.665	0.084	0.252	
13.670	0.768	0.249	
13.675	0.245	0.287	
13.680	-0.053	0.309	
13.685	0.700	0.301	
13.690	0.578	0.330	
13.695	-0.078	0.366	
13.700	0.468	0.357	
13.705	0.790	0.363	
13.710	-0.017	0.392	
13.715	0.117	0.375	
13.720	0.753	0.342	
13.725	0.178	0.346	
13.730	-0.130	0.329	
13.735	0.532	0.281	
13.740	0.367	0.265	
13.745	-0.221	0.257	
13.750	0.187	0.211	
13.755	0.511	0.180	
13.760	-0.153	0.180	
13.765	-0.127	0.151	
13.770	0.410	0.109	
13.775	-0.061	0.097	
13.780	-0.250	0.075	
13.785	0.312	0.039	
13.790	0.219	0.042	
13.795	-0.250	0.058	
13.800	0.122	0.048	
13.805	0.425	0.054	
13.810	-0.182	0.083	
13.815	-0.110	0.080	
13.820	0.451	0.066	
13.825	-0.032	0.082	
13.830	-0.246	0.081	
13.835	0.297	0.056	
13.840	0.131	0.055	
13.845	-0.303	0.056	
13.850	0.035	0.026	
13.855	0.290	0.009	
13.860	-0.277	0.015	
13.865	-0.209	-0.007	
13.870	0.273	-0.036	
13.875	-0.188	-0.037	
13.880	-0.352	-0.051	
13.885	0.142	-0.084	
13.890	0.029	-0.086	
13.895	-0.360	-0.079	
13.900	-0.063	-0.095	
13.905	0.198	-0.099	
13.910	-0.310	-0.082	
13.915	-0.203	-0.087	
13.920	0.355	-0.090	
13.925	-0.087	-0.055	
13.930	-0.226	-0.030	
13.935	0.358	-0.021	
13.940	0.033	0.012	
13.945	-0.439	0.025	
13.950	-0.242	-0.023	
13.955	-0.127	-0.091	
13.960	-0.474	-0.152	
13.965	-0.389	-0.222	
13.970	-0.063	-0.276	
13.975	-0.285	-0.288	
13.980	-0.363	-0.287	
13.985	0.195	-0.271	
13.990	0.130	-0.206	
13.995	-0.279	-0.128	
14.000	0.139	-0.079	
14.005	0.444	-0.020	
14.010	-0.151	0.053	
14.015	-0.041	0.084	
14.020	0.582	0.099	
14.025	0.075	0.144	
14.030	-0.157	0.166	
14.035	0.532	0.160	
14.040	0.396	0.187	
14.045	-0.148	0.220	
14.050	0.383	0.218	
14.055	0.718	0.239	
14.060	0.043	0.290	
14.065	0.201	0.309	
14.070	0.843	0.320	
14.075	0.351	0.370	
14.080	0.055	0.400	
14.085	0.761	0.397	
14.090	0.625	0.424	
14.095	0.012	0.452	
14.100	0.537	0.438	
14.105	0.784	0.436	
14.110	-0.003	0.451	
14.115	0.108	0.417	
14.120	0.666	0.363	
14.125	0.126	0.342	
14.130	-0.154	0.304	
14.135	0.437	0.241	
14.140	0.230	0.209	
14.145	-0.276	0.184	
14.150	0.046	0.125	
14.155	0.344	0.080	
14.160	-0.236	0.066	
14.165	-0.182	0.033	
14.170	0.293	-0.004	
14.175	-0.163	-0.010	
14.180	-0.329	-0.028	
14.185	0.148	-0.063	
14.190	-0.005	-0.070	
14.195	-0.390	-0.072	
14.200	-0.120	-0.102	
14.205	0.126	-0.121	
14.210	-0.351	-0.118	
14.215	-0.264	-0.134	
14.220	0.209	-0.147	
14.225	-0.209	-0.130	
14.230	-0.392	-0.125	
14.235	0.020	-0.144	
14.240	-0.099	-0.148	
14.245	-0.441	-0.151	
14.250	-0.172	-0.178	
14.255	0.023	-0.193	
14.260	-0.406	-0.190	
14.265	-0.329	-0.205	
14.270	0.050	-0.221	
14.275	-0.310	-0.213	
14.280	-0.471	-0.218	
14.285	-0.056	-0.240	
14.290	-0.172	-0.242	
14.295	-0.491	-0.239	
14.300	-0.182	-0.255	
14.305	0.047	-0.253	
14.310	-0.366	-0.227	
14.315	-0.299	-0.217	
14.320	0.200	-0.207	
14.325	-0.159	-0.167	
14.330	-0.300	-0.136	
14.335	0.149	-0.123	
14.340	-0.166	-0.102	
14.345	-0.590	-0.109	
14.350	-0.349	-0.170	
14.355	-0.210	-0.238	
14.360	-0.566	-0.289	
14.365	-0.428	-0.343	
14.370	-0.014	-0.372	
14.375	-0.293	-0.352	
14.380	-0.393	-0.323	
14.385	0.130	-0.293	
14.390	0.024	-0.230	
14.395	-0.335	-0.163	
14.400	0.030	-0.129	
14.405	0.311	-0.086	
14.410	-0.259	-0.031	
14.415	-0.145	-0.015	
14.420	0.453	-0.009	
14.425	-0.099	0.027	
14.430	-0.261	0.039	
14.435	0.314	0.023	
14.440	0.157	0.036	
14.445	-0.277	0.051	
14.450	0.172	0.039	
14.455	0.427	0.049	
14.460	-0.217	0.082	
14.465	-0.056	0.080	
14.470	0.607	0.077	
14.475	-0.020	0.114	
14.480	-0.200	0.128	
14.485	0.559	0.118	
14.490	0.405	0.152	
14.495	-0.201	0.195	
14.500	0.288	0.193	
14.505	0.584	0.201	
14.510	-0.122	0.229	
14.515	-0.056	0.214	
14.520	0.466	0.178	
14.525	-0.073	0.164	
14.530	-0.247	0.130	
14.535	0.328	0.079	
14.540	0.139	0.064	
14.545	-0.305	0.059	
14.550	0.058	0.026	
14.555	0.320	0.012	
14.560	-0.274	0.022	
14.565	-0.178	0.004	
14.570	0.334	-0.019	
14.575	-0.178	-0.013	
14.580	-0.320	-0.023	
14.585	0.297	-0.048	
14.590	0.134	-0.033	
14.595	-0.367	-0.010	
14.600	0.008	-0.024	
14.605	0.290	-0.030	
14.610	-0.282	-0.013	
14.615	-0.166	-0.023	
14.620	0.369	-0.034	
14.625	-0.151	-0.015	
14.630	-0.302	-0.013	
14.635	0.232	-0.034	
14.640	0.038	-0.029	
14.645	-0.366	-0.024	
14.650	-0.020	-0.050	
14.655	0.218	-0.062	
14.660	-0.328	-0.053	
14.665	-0.227	-0.069	
14.670	0.232	-0.090	
14.675	-0.255	-0.084	
14.680	-0.392	-0.097	
14.685	0.099	-0.129	
14.690	-0.105	-0.134	
14.695	-0.473	-0.139	
14.700	-0.174	-0.172	
14.705	-0.005	-0.195	
14.710	-0.413	-0.198	
14.715	-0.277	-0.214	
14.720	0.200	-0.218	
14.725	-0.194	-0.183	
14.730	-0.310	-0.155	
14.735	0.041	-0.148	
14.740	-0.213	-0.138	
14.745	-0.561	-0.151	
14.750	-0.282	-0.204	
14.755	-0.117	-0.250	
14.760	-0.459	-0.271	
14.765	-0.300	-0.294	
14.770	0.160	-0.292	
14.775	-0.218	-0.246	
14.780	-0.296	-0.205	
14.785	0.323	-0.169	
14.790	0.149	-0.097	
14.795	-0.279	-0.028	
14.800	0.232	0.003	
14.805	0.546	0.051	
14.810	-0.142	0.120	
14.815	0.008	0.144	
14.820	0.579	0.150	
14.825	-0.017	0.179	
14.830	-0.153	0.178	
14.835	0.599	0.157	
14.840	0.355	0.183	
14.845	-0.174	0.214	
14.850	0.381	0.208	
14.855	0.607	0.221	
14.860	-0.136	0.255	
14.865	0.154	0.247	
14.870	0.756	0.240	
14.875	0.062	0.272	
14.880	-0.104	0.274	
14.885	0.729	0.251	
14.890	0.472	0.277	
14.895	-0.157	0.309	
14.900	0.500	0.298	
14.905	0.687	0.308	
14.910	-0.133	0.337	
14.915	0.084	0.312	
14.920	0.703	0.276	
14.925	-0.040	0.275	
14.930	-0.213	0.242	
14.935	0.495	0.183	
14.940	0.183	0.164	
14.945	-0.322	0.149	
14.950	0.158	0.101	
14.955	0.399	0.076	
14.960	-0.306	0.080	
14.965	-0.183	0.049	
14.970	0.352	0.010	
14.975	-0.220	0.003	
14.980	-0.300	-0.019	
14.985	0.340	-0.049	
14.990	0.035	-0.035	
14.995	-0.392	-0.021	
15.000	0.088	-0.041	
15.005	0.376	-0.035	
15.010	-0.270	0.000	
15.015	-0.108	0.005	
15.020	0.489	0.007	
15.025	-0.156	0.039	
15.030	-0.281	0.043	
15.035	0.370	0.021	
15.040	0.082	0.032	
15.045	-0.355	0.039	
15.050	0.084	0.010	
15.055	0.262	-0.002	
15.060	-0.364	0.003	
15.065	-0.235	-0.027	
15.070	0.273	-0.063	
15.075	-0.262	-0.067	
15.080	-0.389	-0.086	
15.085	0.175	-0.119	
15.090	-0.050	-0.118	
15.095	-0.432	-0.112	
15.100	-0.017	-0.131	
15.105	0.206	-0.128	
15.110	-0.378	-0.103	
15.115	-0.212	-0.106	
15.120	0.372	-0.108	
15.125	-0.169	-0.072	
15.130	-0.252	-0.052	
15.135	0.553	-0.037	
15.140	0.090	0.020	
15.145	-0.425	0.059	
15.150	-0.166	0.024	
15.155	-0.104	-0.037	
15.160	-0.570	-0.104	
15.165	-0.407	-0.194	
15.170	0.008	-0.266	
15.175	-0.320	-0.285	
15.180	-0.403	-0.290	
15.185	0.178	-0.282	
15.190	0.009	-0.228	
15.195	-0.357	-0.167	
15.200	0.081	-0.135	
15.205	0.341	-0.087	
15.210	-0.268	-0.025	
15.215	-0.120	-0.004	
15.220	0.477	0.005	
15.225	-0.125	0.042	
15.230	-0.235	0.051	
15.235	0.450	0.040	
15.240	0.203	0.067	
15.245	-0.236	0.097	
15.250	0.331	0.096	
15.255	0.613	0.126	
15.260	-0.136	0.183	
15.265	0.091	0.197	
15.270	0.756	0.205	
15.275	0.093	0.249	
15.280	-0.063	0.265	
15.285	0.750	0.258	
15.290	0.518	0.296	
15.295	-0.095	0.339	
15.300	0.436	0.333	
15.305	0.627	0.333	
15.310	-0.127	0.344	
15.315	0.111	0.308	
15.320	0.692	0.270	
15.325	-0.021	0.269	
15.330	-0.188	0.241	
15.335	0.511	0.187	
15.340	0.203	0.174	
15.345	-0.284	0.165	
15.350	0.169	0.121	
15.355	0.390	0.097	
15.360	-0.277	0.099	
15.365	-0.134	0.068	
15.370	0.430	0.034	
15.375	-0.156	0.038	
15.380	-0.290	0.025	
15.385	0.320	-0.005	
15.390	-0.008	-0.003	
15.395	-0.386	-0.006	
15.400	0.032	-0.040	
15.405	0.226	-0.054	
15.410	-0.354	-0.045	
15.415	-0.209	-0.064	
15.420	0.297	-0.084	
15.425	-0.249	-0.071	
15.430	-0.354	-0.078	
15.435	0.184	-0.102	
15.440	-0.046	-0.097	
15.445	-0.399	-0.090	
15.450	0.046	-0.107	
15.455	0.280	-0.097	
15.460	-0.320	-0.061	
15.465	-0.191	-0.057	
15.470	0.315	-0.063	
15.475	-0.223	-0.044	
15.480	-0.349	-0.049	
15.485	0.174	-0.076	
15.490	-0.096	-0.080	
15.495	-0.435	-0.089	
15.500	-0.038	-0.122	
15.505	0.166	-0.132	
15.510	-0.387	-0.117	
15.515	-0.238	-0.127	
15.520	0.267	-0.136	
15.525	-0.233	-0.112	
15.530	-0.340	-0.105	
15.535	0.195	-0.115	
15.540	-0.024	-0.098	
15.545	-0.361	-0.081	
15.550	0.189	-0.084	
15.555	0.517	-0.045	
15.560	-0.125	0.033	
15.565	0.145	0.084	
15.570	0.486	0.124	
15.575	-0.308	0.158	
15.580	-0.509	0.116	
15.585	-0.122	0.007	
15.590	-0.250	-0.094	
15.595	-0.570	-0.181	
15.600	-0.183	-0.264	
15.605	0.079	-0.295	
15.610	-0.348	-0.273	
15.615	-0.139	-0.247	
15.620	0.433	-0.197	
15.625	-0.156	-0.110	
15.630	-0.247	-0.053	
15.635	0.412	-0.026	
15.640	0.149	0.026	
15.645	-0.277	0.066	
15.650	0.283	0.068	
15.655	0.505	0.093	
15.660	-0.213	0.138	
15.665	-0.035	0.137	
15.670	0.614	0.126	
15.675	-0.072	0.149	
15.680	-0.171	0.147	
15.685	0.608	0.128	
15.690	0.326	0.158	
15.695	-0.197	0.193	
15.700	0.439	0.191	
15.705	0.668	0.218	
15.710	-0.084	0.268	
15.715	0.212	0.277	
15.720	0.802	0.282	
15.725	0.073	0.320	
15.730	-0.137	0.317	
15.735	0.604	0.276	
15.740	0.294	0.267	
15.745	-0.229	0.258	
15.750	0.326	0.214	
15.755	0.512	0.196	
15.760	-0.209	0.203	
15.765	-0.058	0.171	
15.770	0.471	0.131	
15.775	-0.169	0.119	
15.780	-0.291	0.085	
15.785	0.322	0.032	
15.790	0.033	0.018	
15.795	-0.358	0.009	
15.800	0.059	-0.026	
15.805	0.285	-0.036	
15.810	-0.326	-0.020	
15.815	-0.171	-0.034	
15.820	0.355	-0.049	
15.825	-0.192	-0.031	
15.830	-0.288	-0.031	
15.835	0.265	-0.049	
15.840	-0.027	-0.038	
15.845	-0.372	-0.034	
15.850	0.037	-0.059	
15.855	0.216	-0.065	
15.860	-0.326	-0.049	
15.865	-0.151	-0.059	
15.870	0.358	-0.066	
15.875	-0.191	-0.039	
15.880	-0.305	-0.034	
15.885	0.248	-0.051	
15.890	-0.015	-0.042	
15.895	-0.375	-0.037	
15.900	0.052	-0.060	
15.905	0.241	-0.062	
15.910	-0.320	-0.042	
15.915	-0.154	-0.050	
15.920	0.381	-0.056	
15.925	-0.221	-0.031	
15.930	-0.320	-0.030	
15.935	0.236	-0.053	
15.940	-0.063	-0.051	
15.945	-0.403	-0.053	
15.950	-0.006	-0.085	
15.955	0.148	-0.098	
15.960	-0.364	-0.089	
15.965	-0.177	-0.103	
15.970	0.341	-0.109	
15.975	-0.242	-0.079	
15.980	-0.311	-0.071	
15.985	0.315	-0.079	
15.990	0.053	-0.051	
15.995	-0.270	-0.021	
16.000	0.364	-0.008	
16.005	0.622	0.050	
16.010	-0.169	0.135	
16.015	-0.168	0.158	
16.020	0.107	0.121	
16.025	-0.401	0.065	
16.030	-0.492	-0.030	
16.035	-0.046	-0.137	
16.040	-0.204	-0.201	
16.045	-0.448	-0.237	
16.050	0.004	-0.261	
16.055	0.197	-0.236	
16.060	-0.331	-0.177	
16.065	-0.120	-0.143	
16.070	0.479	-0.104	
16.075	-0.149	-0.034	
16.080	-0.235	0.005	
16.085	0.421	0.013	
16.090	0.105	0.048	
16.095	-0.285	0.072	
16.100	0.247	0.061	
16.105	0.412	0.072	
16.110	-0.242	0.103	
16.115	-0.027	0.094	
16.120	0.572	0.085	
16.125	-0.078	0.113	
16.130	-0.188	0.116	
16.135	0.544	0.101	
16.140	0.255	0.128	
16.145	-0.204	0.157	
16.150	0.387	0.153	
16.155	0.614	0.177	
16.160	-0.124	0.225	
16.165	0.165	0.232	
16.170	0.733	0.236	
16.175	0.027	0.271	
16.180	-0.095	0.270	
16.185	0.625	0.241	
16.190	0.264	0.248	
16.195	-0.218	0.249	
16.200	0.352	0.211	
16.205	0.488	0.199	
16.210	-0.201	0.208	
16.215	0.062	0.181	
16.220	0.479	0.153	
16.225	-0.180	0.150	
16.230	-0.256	0.114	
16.235	0.337	0.059	
16.240	-0.027	0.039	
16.245	-0.369	0.018	
16.250	0.091	-0.027	
16.255	0.232	-0.042	
16.260	-0.311	-0.030	
16.265	-0.124	-0.043	
16.270	0.390	-0.049	
16.275	-0.210	-0.022	
16.280	-0.296	-0.020	
16.285	0.315	-0.038	
16.290	0.024	-0.023	
16.295	-0.346	-0.011	
16.300	0.116	-0.028	
16.305	0.239	-0.026	
16.310	-0.299	-0.006	
16.315	-0.107	-0.017	
16.320	0.422	-0.023	
16.325	-0.203	0.003	
16.330	-0.271	0.003	
16.335	0.344	-0.016	
16.340	-0.005	-0.003	
16.345	-0.357	0.003	
16.350	0.094	-0.024	
16.355	0.221	-0.030	
16.360	-0.366	-0.020	
16.365	-0.198	-0.044	
16.370	0.250	-0.071	
16.375	-0.268	-0.070	
16.380	-0.358	-0.086	
16.385	0.165	-0.116	
16.390	-0.131	-0.117	
16.395	-0.425	-0.120	
16.400	0.012	-0.144	
16.405	0.139	-0.141	
16.410	-0.366	-0.117	
16.415	-0.180	-0.120	
16.420	0.340	-0.117	
16.425	-0.197	-0.080	
16.430	-0.246	-0.060	
16.435	0.476	-0.050	
16.440	0.175	0.005	
16.445	-0.314	0.055	
16.450	-0.041	0.047	
16.455	-0.105	0.011	
16.460	-0.535	-0.045	
16.465	-0.332	-0.134	
16.470	-0.006	-0.209	
16.475	-0.378	-0.240	
16.480	-0.390	-0.264	
16.485	0.224	-0.271	
16.490	-0.049	-0.224	
16.495	-0.335	-0.169	
16.500	0.148	-0.137	
16.505	0.264	-0.086	
16.510	-0.296	-0.027	
16.515	-0.043	-0.011	
16.520	0.521	0.006	
16.525	-0.139	0.053	
16.530	-0.203	0.068	
16.535	0.479	0.060	
16.540	0.104	0.084	
16.545	-0.279	0.100	
16.550	0.302	0.082	
16.555	0.462	0.094	
16.560	-0.183	0.131	
16.565	0.076	0.133	
16.570	0.639	0.137	
16.575	-0.031	0.175	
16.580	-0.102	0.183	
16.585	0.684	0.174	
16.590	0.328	0.211	
16.595	-0.160	0.245	
16.600	0.505	0.240	
16.605	0.599	0.260	
16.610	-0.151	0.293	
16.615	0.148	0.276	
16.620	0.663	0.254	
16.625	-0.047	0.262	
16.630	-0.156	0.237	
16.635	0.465	0.185	
16.640	0.096	0.166	
16.645	-0.285	0.143	
16.650	0.209	0.093	
16.655	0.259	0.069	
16.660	-0.317	0.064	
16.665	-0.102	0.027	
16.670	0.392	-0.002	
16.675	-0.221	0.006	
16.680	-0.279	-0.007	
16.685	0.300	-0.034	
16.690	-0.067	-0.029	
16.695	-0.349	-0.030	
16.700	0.178	-0.052	
16.705	0.232	-0.042	
16.710	-0.372	-0.017	
16.715	-0.157	-0.032	
16.720	0.315	-0.051	
16.725	-0.232	-0.040	
16.730	-0.291	-0.047	
16.735	0.317	-0.065	
16.740	-0.050	-0.048	
16.745	-0.360	-0.038	
16.750	0.160	-0.054	
16.755	0.259	-0.042	
16.760	-0.305	-0.011	
16.765	-0.089	-0.014	
16.770	0.405	-0.016	
16.775	-0.197	0.010	
16.780	-0.282	0.008	
16.785	0.242	-0.018	
16.790	-0.105	-0.023	
16.795	-0.383	-0.037	
16.800	0.004	-0.078	
16.805	0.099	-0.096	
16.810	-0.364	-0.094	
16.815	-0.183	-0.114	
16.820	0.238	-0.125	
16.825	-0.279	-0.107	
16.830	-0.322	-0.108	
16.835	0.238	-0.120	
16.840	-0.098	-0.101	
16.845	-0.396	-0.090	
16.850	0.032	-0.107	
16.855	0.174	-0.103	
16.860	-0.326	-0.080	
16.865	-0.047	-0.078	
16.870	0.573	-0.055	
16.875	-0.093	0.012	
16.880	-0.238	0.050	
16.885	0.125	0.039	
16.890	-0.267	0.015	
16.895	-0.570	-0.045	
16.900	-0.194	-0.140	
16.905	-0.134	-0.211	
16.910	-0.489	-0.251	
16.915	-0.256	-0.288	
16.920	0.227	-0.288	
16.925	-0.242	-0.237	
16.930	-0.255	-0.192	
16.935	0.431	-0.149	
16.940	0.014	-0.072	
16.945	-0.322	-0.014	
16.950	0.230	-0.002	
16.955	0.401	0.030	
16.960	-0.259	0.075	
16.965	0.021	0.079	
16.970	0.535	0.081	
16.975	-0.127	0.112	
16.980	-0.149	0.112	
16.985	0.553	0.098	
16.990	0.189	0.125	
16.995	-0.213	0.149	
17.000	0.419	0.141	
17.005	0.530	0.165	
17.010	-0.127	0.208	
17.015	0.203	0.214	
17.020	0.747	0.224	
17.025	0.011	0.267	
17.030	-0.076	0.270	
17.035	0.691	0.247	
17.040	0.241	0.262	
17.045	-0.175	0.267	
17.050	0.483	0.237	
17.055	0.535	0.240	
17.060	-0.171	0.261	
17.065	0.134	0.238	
17.070	0.619	0.216	
17.075	-0.120	0.223	
17.080	-0.177	0.195	
17.085	0.447	0.143	
17.090	0.020	0.126	
17.095	-0.329	0.101	
17.100	0.180	0.049	
17.105	0.183	0.024	
17.110	-0.367	0.016	
17.115	-0.127	-0.023	
17.120	0.340	-0.050	
17.125	-0.244	-0.040	
17.130	-0.258	-0.047	
17.135	0.323	-0.061	
17.140	-0.078	-0.043	
17.145	-0.343	-0.034	
17.150	0.183	-0.050	
17.155	0.250	-0.036	
17.160	-0.302	-0.005	
17.165	-0.073	-0.009	
17.170	0.364	-0.013	
17.175	-0.215	0.008	
17.180	-0.244	0.002	
17.185	0.329	-0.018	
17.190	-0.064	-0.009	
17.195	-0.352	-0.009	
17.200	0.154	-0.036	
17.205	0.181	-0.037	
17.210	-0.343	-0.022	
17.215	-0.104	-0.039	
17.220	0.343	-0.050	
17.225	-0.273	-0.031	
17.230	-0.300	-0.040	
17.235	0.268	-0.065	
17.240	-0.122	-0.060	
17.245	-0.412	-0.064	
17.250	0.096	-0.094	
17.255	0.104	-0.096	
17.260	-0.403	-0.084	
17.265	-0.178	-0.104	
17.270	0.253	-0.117	
17.275	-0.300	-0.101	
17.280	-0.313	-0.105	
17.285	0.250	-0.119	
17.290	-0.104	-0.100	
17.295	-0.322	-0.085	
17.300	0.340	-0.081	
17.305	0.418	-0.028	
17.310	-0.230	0.047	
17.315	-0.108	0.068	
17.320	0.125	0.051	
17.325	-0.433	0.020	
17.330	-0.485	-0.056	
17.335	-0.073	-0.151	
17.340	-0.279	-0.212	
17.345	-0.503	-0.255	
17.350	-0.044	-0.290	
17.355	0.052	-0.279	
17.360	-0.361	-0.236	
17.365	-0.096	-0.207	
17.370	0.410	-0.161	
17.375	-0.207	-0.085	
17.380	-0.203	-0.041	
17.385	0.472	-0.019	
17.390	0.047	0.032	
17.395	-0.284	0.064	
17.400	0.326	0.059	
17.405	0.419	0.082	
17.410	-0.210	0.122	
17.415	0.133	0.126	
17.420	0.569	0.133	
17.425	-0.128	0.164	
17.430	-0.113	0.159	
17.435	0.564	0.136	
17.440	0.139	0.154	
17.445	-0.198	0.163	
17.450	0.503	0.149	
17.455	0.561	0.178	
17.460	-0.117	0.229	
17.465	0.285	0.240	
17.470	0.767	0.257	
17.475	0.029	0.303	
17.480	-0.046	0.306	
17.485	0.646	0.278	
17.490	0.136	0.277	
17.495	-0.224	0.257	
17.500	0.437	0.205	
17.505	0.404	0.191	
17.510	-0.239	0.195	
17.515	0.067	0.161	
17.520	0.514	0.133	
17.525	-0.217	0.135	
17.530	-0.226	0.105	
17.535	0.418	0.059	
17.540	-0.046	0.051	
17.545	-0.317	0.039	
17.550	0.251	0.006	
17.555	0.268	0.009	
17.560	-0.294	0.032	
17.565	-0.104	0.018	
17.570	0.315	-0.001	
17.575	-0.276	0.001	
17.580	-0.287	-0.022	
17.585	0.287	-0.055	
17.590	-0.119	-0.054	
17.595	-0.360	-0.057	
17.600	0.166	-0.080	
17.605	0.183	-0.069	
17.610	-0.334	-0.042	
17.615	-0.069	-0.046	
17.620	0.396	-0.043	
17.625	-0.227	-0.011	
17.630	-0.239	-0.007	
17.635	0.383	-0.018	
17.640	-0.063	0.001	
17.645	-0.352	0.006	
17.650	0.125	-0.023	
17.655	0.122	-0.032	
17.660	-0.372	-0.030	
17.665	-0.124	-0.058	
17.670	0.297	-0.076	
17.675	-0.308	-0.064	
17.680	-0.325	-0.075	
17.685	0.221	-0.101	
17.690	-0.163	-0.097	
17.695	-0.410	-0.101	
17.700	0.070	-0.127	
17.705	0.053	-0.126	
17.710	-0.401	-0.112	
17.715	-0.124	-0.125	
17.720	0.293	-0.125	
17.725	-0.299	-0.094	
17.730	-0.268	-0.088	
17.735	0.364	-0.091	
17.740	0.003	-0.054	
17.745	-0.217	-0.019	
17.750	0.436	0.002	
17.755	0.280	0.055	
17.760	-0.445	0.097	
17.765	-0.285	0.058	
17.770	-0.073	-0.022	
17.775	-0.470	-0.099	
17.780	-0.457	-0.186	
17.785	0.040	-0.257	
17.790	-0.213	-0.272	
17.795	-0.398	-0.265	
17.800	0.174	-0.251	
17.805	0.206	-0.191	
17.810	-0.297	-0.113	
17.815	0.065	-0.069	
17.820	0.474	-0.020	
17.825	-0.178	0.046	
17.830	-0.149	0.069	
17.835	0.527	0.069	
17.840	0.041	0.101	
17.845	-0.236	0.115	
17.850	0.364	0.097	
17.855	0.282	0.106	
17.860	-0.284	0.121	
17.865	0.091	0.097	
17.870	0.565	0.089	
17.875	-0.117	0.119	
17.880	-0.072	0.124	
17.885	0.686	0.123	
17.890	0.200	0.169	
17.895	-0.153	0.204	
17.900	0.581	0.205	
17.905	0.585	0.241	
17.910	-0.116	0.290	
17.915	0.357	0.293	
17.920	0.782	0.304	
17.925	-0.043	0.340	
17.930	-0.034	0.326	
17.935	0.663	0.284	
17.940	0.136	0.277	
17.945	-0.252	0.254	
17.950	0.361	0.195	
17.955	0.341	0.168	
17.960	-0.288	0.158	
17.965	0.008	0.114	
17.970	0.463	0.080	
17.975	-0.221	0.081	
17.980	-0.212	0.058	
17.985	0.405	0.025	
17.990	-0.056	0.029	
17.995	-0.311	0.025	
18.000	0.250	-0.002	
18.005	0.190	0.003	
18.010	-0.363	0.017	
18.015	-0.070	-0.007	
18.020	0.329	-0.026	
18.025	-0.277	-0.016	
18.030	-0.262	-0.030	
18.035	0.258	-0.057	
18.040	-0.157	-0.055	
18.045	-0.390	-0.065	
18.050	0.114	-0.096	
18.055	0.067	-0.097	
18.060	-0.380	-0.086	
18.065	-0.102	-0.102	
18.070	0.265	-0.105	
18.075	-0.291	-0.081	
18.080	-0.244	-0.080	
18.085	0.340	-0.085	
18.090	-0.102	-0.057	
18.095	-0.351	-0.042	
18.100	0.181	-0.056	
18.105	0.142	-0.045	
18.110	-0.343	-0.026	
18.115	-0.060	-0.040	
18.120	0.233	-0.050	
18.125	-0.310	-0.041	
18.130	-0.291	-0.060	
18.135	0.189	-0.091	
18.140	-0.200	-0.095	
18.145	-0.403	-0.107	
18.150	0.114	-0.135	
18.155	0.078	-0.128	
18.160	-0.389	-0.106	
18.165	-0.098	-0.113	
18.170	0.276	-0.110	
18.175	-0.300	-0.081	
18.180	-0.258	-0.078	
18.185	0.373	-0.083	
18.190	-0.075	-0.051	
18.195	-0.265	-0.028	
18.200	0.468	-0.018	
18.205	0.503	0.045	
18.210	-0.288	0.122	
18.215	-0.154	0.127	
18.220	-0.011	0.078	
18.225	-0.499	0.008	
18.230	-0.474	-0.096	
18.235	-0.066	-0.199	
18.240	-0.306	-0.255	
18.245	-0.442	-0.287	
18.250	0.119	-0.300	
18.255	0.139	-0.253	
18.260	-0.337	-0.181	
18.265	0.017	-0.136	
18.270	0.453	-0.082	
18.275	-0.227	-0.008	
18.280	-0.200	0.020	
18.285	0.436	0.022	
18.290	-0.067	0.046	
18.295	-0.300	0.050	
18.300	0.351	0.028	
18.305	0.303	0.044	
18.310	-0.250	0.077	
18.315	0.168	0.077	
18.320	0.594	0.095	
18.325	-0.120	0.143	
18.330	-0.043	0.154	
18.335	0.684	0.154	
18.340	0.171	0.194	
18.345	-0.153	0.218	
18.350	0.604	0.212	
18.355	0.527	0.242	
18.360	-0.140	0.283	
18.365	0.373	0.279	
18.370	0.770	0.289	
18.375	-0.098	0.325	
18.380	-0.053	0.306	
18.385	0.662	0.262	
18.390	0.119	0.256	
18.395	-0.230	0.236	
18.400	0.434	0.187	
18.405	0.308	0.173	
18.410	-0.264	0.170	
18.415	0.116	0.132	
18.420	0.472	0.110	
18.425	-0.207	0.118	
18.430	-0.186	0.094	
18.435	0.401	0.057	
18.440	-0.096	0.052	
18.445	-0.311	0.035	
18.450	0.247	-0.001	
18.455	0.172	-0.003	
18.460	-0.349	0.008	
18.465	0.001	-0.012	
18.470	0.306	-0.022	
18.475	-0.313	-0.008	
18.480	-0.261	-0.027	
18.485	0.270	-0.057	
18.490	-0.171	-0.057	
18.495	-0.381	-0.067	
18.500	0.148	-0.096	
18.505	0.087	-0.092	
18.510	-0.386	-0.076	
18.515	-0.098	-0.091	
18.520	0.244	-0.096	
18.525	-0.319	-0.078	
18.530	-0.249	-0.084	
18.535	0.344	-0.094	
18.540	-0.134	-0.067	
18.545	-0.339	-0.053	
18.550	0.200	-0.065	
18.555	0.102	-0.051	
18.560	-0.349	-0.033	
18.565	-0.063	-0.048	
18.570	0.242	-0.057	
18.575	-0.317	-0.046	
18.580	-0.250	-0.062	
18.585	0.297	-0.082	
18.590	-0.177	-0.069	
18.595	-0.393	-0.071	
18.600	0.105	-0.098	
18.605	-0.008	-0.102	
18.610	-0.410	-0.100	
18.615	-0.099	-0.124	
18.620	0.226	-0.130	
18.625	-0.325	-0.108	
18.630	-0.247	-0.108	
18.635	0.308	-0.112	
18.640	-0.165	-0.084	
18.645	-0.322	-0.070	
18.650	0.322	-0.073	
18.655	0.235	-0.035	
18.660	-0.242	0.015	
18.665	0.169	0.033	
18.670	0.305	0.055	
18.675	-0.454	0.070	
18.680	-0.459	0.016	
18.685	-0.107	-0.082	
18.690	-0.399	-0.165	
18.695	-0.524	-0.241	
18.700	-0.017	-0.301	
18.705	-0.027	-0.303	
18.710	-0.377	-0.268	
18.715	0.023	-0.237	
18.720	0.453	-0.172	
18.725	-0.230	-0.076	
18.730	-0.142	-0.022	
18.735	0.552	0.011	
18.740	-0.020	0.068	
18.745	-0.259	0.095	
18.750	0.447	0.087	
18.755	0.335	0.112	
18.760	-0.252	0.143	
18.765	0.218	0.134	
18.770	0.576	0.140	
18.775	-0.166	0.173	
18.780	-0.053	0.166	
18.785	0.655	0.149	
18.790	0.104	0.177	
18.795	-0.146	0.190	
18.800	0.584	0.180	
18.805	0.479	0.211	
18.810	-0.159	0.251	
18.815	0.378	0.249	
18.820	0.745	0.264	
18.825	-0.027	0.308	
18.830	0.108	0.309	
18.835	0.726	0.295	
18.840	0.075	0.309	
18.845	-0.182	0.291	
18.850	0.486	0.237	
18.855	0.348	0.220	
18.860	-0.252	0.213	
18.865	0.161	0.171	
18.870	0.466	0.144	
18.875	-0.215	0.144	
18.880	-0.142	0.113	
18.885	0.463	0.075	
18.890	-0.095	0.075	
18.895	-0.323	0.058	
18.900	0.250	0.017	
18.905	0.119	0.007	
18.910	-0.343	0.007	
18.915	-0.029	-0.021	
18.920	0.274	-0.037	
18.925	-0.316	-0.029	
18.930	-0.223	-0.046	
18.935	0.335	-0.066	
18.940	-0.157	-0.050	
18.945	-0.322	-0.047	
18.950	0.232	-0.063	
18.955	0.055	-0.050	
18.960	-0.369	-0.036	
18.965	-0.015	-0.054	
18.970	0.309	-0.058	
18.975	-0.291	-0.034	
18.980	-0.203	-0.038	
18.985	0.358	-0.049	
18.990	-0.154	-0.029	
18.995	-0.334	-0.026	
19.000	0.273	-0.046	
19.005	0.068	-0.034	
19.010	-0.375	-0.020	
19.015	-0.043	-0.043	
19.020	0.256	-0.056	
19.025	-0.339	-0.046	
19.030	-0.233	-0.063	
19.035	0.317	-0.082	
19.040	-0.180	-0.066	
19.045	-0.361	-0.065	
19.050	0.166	-0.086	
19.055	-0.006	-0.082	
19.060	-0.409	-0.077	
19.065	-0.055	-0.101	
19.070	0.235	-0.107	
19.075	-0.337	-0.087	
19.080	-0.236	-0.092	
19.085	0.395	-0.097	
19.090	-0.101	-0.060	
19.095	-0.239	-0.033	
19.100	0.460	-0.020	
19.105	0.137	0.029	
19.110	-0.451	0.060	
19.115	-0.227	0.019	
19.120	-0.095	-0.051	
19.125	-0.506	-0.119	
19.130	-0.381	-0.199	
19.135	0.053	-0.257	
19.140	-0.279	-0.264	
19.145	-0.381	-0.260	
19.150	0.238	-0.247	
19.155	0.136	-0.184	
19.160	-0.293	-0.109	
19.165	0.158	-0.066	
19.170	0.431	-0.011	
19.175	-0.246	0.053	
19.180	-0.085	0.069	
19.185	0.575	0.071	
19.190	-0.024	0.107	
19.195	-0.246	0.118	
19.200	0.442	0.098	
19.205	0.259	0.112	
19.210	-0.249	0.130	
19.215	0.267	0.117	
19.220	0.578	0.129	
19.225	-0.154	0.169	
19.230	0.014	0.171	
19.235	0.736	0.168	
19.240	0.131	0.211	
19.245	-0.140	0.232	
19.250	0.649	0.223	
19.255	0.465	0.252	
19.260	-0.139	0.286	
19.265	0.472	0.281	
19.270	0.704	0.296	
19.275	-0.099	0.331	
19.280	0.065	0.314	
19.285	0.718	0.282	
19.290	0.064	0.286	
19.295	-0.177	0.266	
19.300	0.517	0.218	
19.305	0.314	0.208	
19.310	-0.258	0.206	
19.315	0.116	0.163	
19.320	0.416	0.129	
19.325	-0.250	0.121	
19.330	-0.156	0.084	
19.335	0.428	0.044	
19.340	-0.180	0.040	
19.345	-0.322	0.019	
19.350	0.230	-0.022	
19.355	0.119	-0.026	
19.360	-0.343	-0.018	
19.365	0.017	-0.036	
19.370	0.323	-0.037	
19.375	-0.331	-0.016	
19.380	-0.224	-0.028	
19.385	0.314	-0.051	
19.390	-0.168	-0.042	
19.395	-0.310	-0.045	
19.400	0.320	-0.059	
19.405	0.047	-0.038	
19.410	-0.377	-0.019	
19.415	0.027	-0.037	
19.420	0.354	-0.038	
19.425	-0.271	-0.010	
19.430	-0.171	-0.011	
19.435	0.404	-0.019	
19.440	-0.146	0.003	
19.445	-0.302	0.005	
19.450	0.288	-0.017	
19.455	0.046	-0.009	
19.460	-0.383	-0.004	
19.465	-0.014	-0.035	
19.470	0.282	-0.049	
19.475	-0.331	-0.037	
19.480	-0.218	-0.052	
19.485	0.300	-0.071	
19.490	-0.213	-0.060	
19.495	-0.377	-0.066	
19.500	0.165	-0.094	
19.505	0.026	-0.092	
19.510	-0.401	-0.082	
19.515	-0.029	-0.099	
19.520	0.276	-0.098	
19.525	-0.293	-0.069	
19.530	-0.136	-0.062	
19.535	0.558	-0.048	
19.540	0.009	0.014	
19.545	-0.198	0.059	
19.550	0.207	0.062	
19.555	-0.139	0.056	
19.560	-0.521	0.015	
19.565	-0.249	-0.074	
19.570	-0.090	-0.155	
19.575	-0.480	-0.208	
19.580	-0.340	-0.260	
19.585	0.207	-0.282	
19.590	-0.197	-0.246	
19.595	-0.293	-0.205	
19.600	0.297	-0.169	
19.605	0.128	-0.101	
19.610	-0.302	-0.037	
19.615	0.178	-0.012	
19.620	0.476	0.026	
19.625	-0.192	0.084	
19.630	-0.031	0.099	
19.635	0.575	0.104	
19.640	-0.050	0.136	
19.645	-0.213	0.139	
19.650	0.476	0.114	
19.655	0.245	0.127	
19.660	-0.258	0.142	
19.665	0.293	0.124	
19.670	0.535	0.133	
19.675	-0.149	0.168	
19.680	0.094	0.170	
19.685	0.730	0.175	
19.690	0.072	0.220	
19.695	-0.120	0.236	
19.700	0.663	0.224	
19.705	0.434	0.252	
19.710	-0.154	0.283	
19.715	0.430	0.271	
19.720	0.675	0.279	
19.725	-0.108	0.309	
19.730	0.050	0.290	
19.735	0.628	0.256	
19.740	-0.056	0.249	
19.745	-0.217	0.214	
19.750	0.404	0.153	
19.755	0.101	0.127	
19.760	-0.334	0.103	
19.765	0.102	0.051	
19.770	0.320	0.025	
19.775	-0.279	0.028	
19.780	-0.130	0.008	
19.785	0.392	-0.010	
19.790	-0.198	0.004	
19.795	-0.322	-0.005	
19.800	0.280	-0.034	
19.805	0.030	-0.030	
19.810	-0.401	-0.025	
19.815	-0.015	-0.054	
19.820	0.227	-0.068	
19.825	-0.339	-0.058	
19.830	-0.217	-0.073	
19.835	0.306	-0.088	
19.840	-0.210	-0.071	
19.845	-0.331	-0.070	
19.850	0.306	-0.083	
19.855	-0.006	-0.061	
19.860	-0.392	-0.044	
19.865	0.023	-0.062	
19.870	0.279	-0.063	
19.875	-0.303	-0.039	
19.880	-0.165	-0.043	
19.885	0.352	-0.050	
19.890	-0.209	-0.029	
19.895	-0.335	-0.032	
19.900	0.169	-0.060	
19.905	-0.107	-0.068	
19.910	-0.465	-0.082	
19.915	-0.096	-0.127	
19.920	0.084	-0.152	
19.925	-0.401	-0.151	
19.930	-0.244	-0.167	
19.935	0.216	-0.175	
19.940	-0.262	-0.150	
19.945	-0.369	-0.142	
19.950	0.189	-0.149	
19.955	-0.046	-0.126	
19.960	-0.399	-0.106	
19.965	0.035	-0.114	
19.970	0.300	-0.098	
19.975	-0.255	-0.055	
19.980	-0.009	-0.033	
19.985	0.633	0.000	
19.990	-0.159	0.067	
19.995	-0.438	0.082	
20.000	-0.139	0.020	
20.005	-0.322	-0.062	
20.010	-0.607	-0.155	
20.015	-0.232	-0.254	
20.020	-0.032	-0.306	
20.025	-0.409	-0.308	
20.030	-0.220	-0.301	
20.035	0.341	-0.266	
20.040	-0.174	-0.186	
20.045	-0.265	-0.125	
20.050	0.395	-0.086	
20.055	0.105	-0.022	
20.060	-0.293	0.028	
20.065	0.235	0.036	
20.070	0.433	0.061	
20.075	-0.217	0.103	
20.080	-0.018	0.104	
20.085	0.596	0.101	
20.090	-0.089	0.131	
20.095	-0.198	0.132	
20.100	0.486	0.108	
20.105	0.221	0.122	
20.110	-0.244	0.138	
20.115	0.363	0.125	
20.120	0.611	0.146	
20.125	-0.120	0.197	
20.130	0.125	0.208	
20.135	0.767	0.217	
20.140	0.117	0.263	
20.145	-0.061	0.281	
20.150	0.694	0.269	
20.155	0.393	0.293	
20.160	-0.157	0.312	
20.165	0.434	0.287	
20.170	0.581	0.282	
20.175	-0.177	0.293	
20.180	0.018	0.255	
20.185	0.587	0.210	
20.190	-0.127	0.199	
20.195	-0.242	0.160	
20.200	0.410	0.103	
20.205	0.073	0.085	
20.210	-0.335	0.071	
20.215	0.093	0.028	
20.220	0.291	0.008	
20.225	-0.293	0.014	
20.230	-0.117	-0.004	
20.235	0.421	-0.017	
20.240	-0.192	0.004	
20.245	-0.297	0.001	
20.250	0.256	-0.024	
20.255	-0.018	-0.024	
20.260	-0.377	-0.026	
20.265	0.052	-0.056	
20.270	0.227	-0.062	
20.275	-0.335	-0.046	
20.280	-0.174	-0.058	
20.285	0.352	-0.069	
20.290	-0.213	-0.046	
20.295	-0.306	-0.045	
20.300	0.303	-0.060	
20.305	0.021	-0.041	
20.310	-0.357	-0.025	
20.315	0.088	-0.040	
20.320	0.283	-0.036	
20.325	-0.317	-0.011	
20.330	-0.139	-0.020	
20.335	0.340	-0.032	
20.340	-0.242	-0.018	
20.345	-0.345	-0.031	
20.350	0.139	-0.068	
20.355	-0.133	-0.083	
20.360	-0.447	-0.101	
20.365	-0.052	-0.141	
20.370	0.139	-0.154	
20.375	-0.393	-0.140	
20.380	-0.204	-0.146	
20.385	0.276	-0.147	
20.390	-0.252	-0.115	
20.395	-0.329	-0.104	
20.400	0.282	-0.109	
20.405	0.038	-0.078	
20.410	-0.282	-0.045	
20.415	0.308	-0.031	
20.420	0.488	0.020	
20.425	-0.282	0.087	
20.430	-0.239	0.090	
20.435	0.004	0.040	
20.440	-0.456	-0.024	
20.445	-0.532	-0.117	
20.450	-0.044	-0.214	
20.455	-0.226	-0.261	
20.460	-0.494	-0.281	
20.465	-0.035	-0.297	
20.470	0.210	-0.267	
20.475	-0.332	-0.200	
20.480	-0.116	-0.156	
20.485	0.474	-0.110	
20.490	-0.146	-0.036	
20.495	-0.217	0.006	
20.500	0.492	0.021	
20.505	0.163	0.068	
20.510	-0.267	0.104	
20.515	0.335	0.101	
20.520	0.500	0.122	
20.525	-0.195	0.163	
20.530	0.044	0.160	
20.535	0.627	0.153	
20.540	-0.027	0.180	
20.545	-0.172	0.178	
20.550	0.564	0.153	
20.555	0.277	0.170	
20.560	-0.186	0.190	
20.565	0.431	0.180	
20.570	0.634	0.202	
20.575	-0.110	0.249	
20.580	0.218	0.256	
20.585	0.797	0.263	
20.590	0.056	0.305	
20.595	-0.089	0.307	
20.600	0.663	0.276	
20.605	0.297	0.281	
20.610	-0.201	0.280	
20.615	0.401	0.242	
20.620	0.418	0.225	
20.625	-0.268	0.220	
20.630	-0.046	0.169	
20.635	0.520	0.121	
20.640	-0.180	0.112	
20.645	-0.274	0.082	
20.650	0.331	0.033	
20.655	-0.009	0.021	
20.660	-0.354	0.009	
20.665	0.091	-0.027	
20.670	0.253	-0.036	
20.675	-0.313	-0.021	
20.680	-0.107	-0.032	
20.685	0.380	-0.038	
20.690	-0.217	-0.014	
20.695	-0.274	-0.015	
20.700	0.361	-0.031	
20.705	0.000	-0.013	
20.710	-0.358	-0.001	
20.715	0.107	-0.023	
20.720	0.247	-0.025	
20.725	-0.326	-0.009	
20.730	-0.108	-0.023	
20.735	0.430	-0.031	
20.740	-0.232	-0.005	
20.745	-0.288	-0.006	
20.750	0.320	-0.028	
20.755	-0.046	-0.020	
20.760	-0.374	-0.019	
20.765	0.093	-0.047	
20.770	0.216	-0.051	
20.775	-0.355	-0.036	
20.780	-0.178	-0.052	
20.785	0.235	-0.073	
20.790	-0.291	-0.070	
20.795	-0.335	-0.087	
20.800	0.233	-0.113	
20.805	-0.108	-0.104	
20.810	-0.427	-0.099	
20.815	0.029	-0.122	
20.820	0.171	-0.119	
20.825	-0.374	-0.096	
20.830	-0.160	-0.101	
20.835	0.300	-0.103	
20.840	-0.236	-0.076	
20.845	-0.252	-0.068	
20.850	0.486	-0.063	
20.855	0.097	-0.011	
20.860	-0.387	0.030	
20.865	-0.072	0.010	
20.870	-0.085	-0.030	
20.875	-0.531	-0.080	
20.880	-0.326	-0.158	
20.885	-0.003	-0.221	
20.890	-0.364	-0.244	
20.895	-0.351	-0.260	
20.900	0.224	-0.259	
20.905	-0.069	-0.209	
20.910	-0.337	-0.158	
20.915	0.190	-0.129	
20.920	0.306	-0.075	
20.925	-0.270	-0.010	
20.930	0.014	0.014	
20.935	0.578	0.038	
20.940	-0.134	0.091	
20.945	-0.178	0.106	
20.950	0.555	0.097	
20.955	0.149	0.124	
20.960	-0.259	0.142	
20.965	0.340	0.124	
20.970	0.486	0.133	
20.975	-0.209	0.164	
20.980	0.134	0.159	
20.985	0.680	0.161	
20.990	-0.026	0.200	
20.995	-0.053	0.209	
21.000	0.675	0.199	
21.005	0.290	0.231	
21.010	-0.156	0.255	
21.015	0.489	0.241	
21.020	0.552	0.253	
21.025	-0.148	0.279	
21.030	0.192	0.261	
21.035	0.707	0.247	
21.040	-0.064	0.266	
21.045	-0.160	0.246	
21.050	0.573	0.199	
21.055	0.116	0.190	
21.060	-0.308	0.174	
21.065	0.218	0.120	
21.070	0.300	0.092	
21.075	-0.305	0.084	
21.080	-0.043	0.049	
21.085	0.447	0.025	
21.090	-0.203	0.039	
21.095	-0.256	0.028	
21.100	0.338	0.000	
21.105	-0.082	0.002	
21.110	-0.372	-0.006	
21.115	0.140	-0.041	
21.120	0.206	-0.045	
21.125	-0.320	-0.028	
21.130	-0.119	-0.040	
21.135	0.348	-0.048	
21.140	-0.246	-0.028	
21.145	-0.274	-0.032	
21.150	0.306	-0.051	
21.155	-0.075	-0.039	
21.160	-0.348	-0.034	
21.165	0.151	-0.054	
21.170	0.177	-0.048	
21.175	-0.331	-0.028	
21.180	-0.092	-0.040	
21.185	0.351	-0.046	
21.190	-0.264	-0.024	
21.195	-0.274	-0.030	
21.200	0.236	-0.054	
21.205	-0.156	-0.054	
21.210	-0.435	-0.067	
21.215	0.014	-0.108	
21.220	0.076	-0.124	
21.225	-0.404	-0.119	
21.230	-0.171	-0.137	
21.235	0.245	-0.143	
21.240	-0.306	-0.119	
21.245	-0.334	-0.118	
21.250	0.226	-0.130	
21.255	-0.134	-0.113	
21.260	-0.390	-0.103	
21.265	0.143	-0.115	
21.270	0.302	-0.091	
21.275	-0.258	-0.039	
21.280	0.070	-0.014	
21.285	0.543	0.021	
21.290	-0.291	0.074	
21.295	-0.421	0.066	
21.300	-0.078	-0.007	
21.305	-0.326	-0.083	
21.310	-0.576	-0.165	
21.315	-0.157	-0.251	
21.320	-0.063	-0.290	
21.325	-0.419	-0.289	
21.330	-0.137	-0.283	
21.335	0.367	-0.242	
21.340	-0.226	-0.161	
21.345	-0.218	-0.105	
21.350	0.518	-0.065	
21.355	0.061	0.008	
21.360	-0.329	0.056	
21.365	0.276	0.055	
21.370	0.326	0.069	
21.375	-0.264	0.094	
21.380	0.079	0.084	
21.385	0.599	0.086	
21.390	-0.110	0.125	
21.395	-0.143	0.132	
21.400	0.596	0.120	
21.405	0.192	0.150	
21.410	-0.206	0.172	
21.415	0.494	0.164	
21.420	0.558	0.192	
21.425	-0.130	0.238	
21.430	0.319	0.246	
21.435	0.831	0.266	
21.440	0.003	0.318	
21.445	-0.041	0.322	
21.450	0.691	0.292	
21.455	0.236	0.297	
21.460	-0.182	0.289	
21.465	0.477	0.249	
21.470	0.517	0.242	
21.475	-0.188	0.255	
21.480	0.130	0.227	
21.485	0.572	0.201	
21.490	-0.143	0.203	
21.495	-0.180	0.172	
21.500	0.497	0.124	
21.505	-0.012	0.115	
21.510	-0.355	0.094	
21.515	0.177	0.042	
21.520	0.227	0.019	
21.525	-0.328	0.018	
21.530	-0.069	-0.009	
21.535	0.366	-0.025	
21.540	-0.236	-0.009	
21.545	-0.235	-0.015	
21.550	0.315	-0.033	
21.555	-0.116	-0.023	
21.560	-0.361	-0.027	
21.565	0.180	-0.054	
21.570	0.125	-0.052	
21.575	-0.357	-0.038	
21.580	-0.087	-0.055	
21.585	0.332	-0.063	
21.590	-0.276	-0.041	
21.595	-0.253	-0.044	
21.600	0.349	-0.058	
21.605	-0.116	-0.039	
21.610	-0.370	-0.034	
21.615	0.131	-0.059	
21.620	0.113	-0.060	
21.625	-0.377	-0.050	
21.630	-0.148	-0.073	
21.635	0.239	-0.090	
21.640	-0.335	-0.083	
21.645	-0.340	-0.099	
21.650	0.183	-0.127	
21.655	-0.239	-0.128	
21.660	-0.456	-0.139	
21.665	0.009	-0.171	
21.670	0.008	-0.176	
21.675	-0.419	-0.164	
21.680	-0.151	-0.173	
21.685	0.279	-0.166	
21.690	-0.250	-0.125	
21.695	-0.230	-0.102	
21.700	0.486	-0.083	
21.705	0.081	-0.020	
21.710	-0.299	0.031	
21.715	0.035	0.028	
21.720	-0.183	0.002	
21.725	-0.624	-0.055	
21.730	-0.372	-0.156	
21.735	-0.098	-0.244	
21.740	-0.445	-0.290	
21.745	-0.358	-0.320	
21.750	0.178	-0.322	
21.755	-0.127	-0.269	
21.760	-0.342	-0.213	
21.765	0.204	-0.174	
21.770	0.248	-0.108	
21.775	-0.323	-0.038	
21.780	-0.041	-0.017	
21.785	0.445	-0.002	
21.790	-0.195	0.036	
21.795	-0.171	0.043	
21.800	0.506	0.037	
21.805	0.038	0.068	
21.810	-0.261	0.085	
21.815	0.405	0.074	
21.820	0.405	0.099	
21.825	-0.204	0.140	
21.830	0.125	0.140	
21.835	0.567	0.142	
21.840	-0.105	0.170	
21.845	-0.037	0.167	
21.850	0.703	0.159	
21.855	0.209	0.199	
21.860	-0.143	0.226	
21.865	0.599	0.222	
21.870	0.578	0.255	
21.875	-0.156	0.297	
21.880	0.276	0.288	
21.885	0.695	0.281	
21.890	-0.043	0.301	
21.895	-0.089	0.279	
21.900	0.558	0.232	
21.905	0.021	0.215	
21.910	-0.258	0.182	
21.915	0.366	0.127	
21.920	0.285	0.111	
21.925	-0.279	0.113	
21.930	0.088	0.085	
21.935	0.439	0.071	
21.940	-0.239	0.084	
21.945	-0.241	0.062	
21.950	0.346	0.023	
21.955	-0.096	0.016	
21.960	-0.314	0.002	
21.965	0.157	-0.032	
21.970	0.021	-0.041	
21.975	-0.386	-0.047	
21.980	-0.087	-0.080	
21.985	0.282	-0.094	
21.990	-0.288	-0.075	
21.995	-0.235	-0.076	
22.000	0.361	-0.081	
22.005	-0.096	-0.050	
22.010	-0.317	-0.033	
22.015	0.256	-0.040	
22.020	0.200	-0.018	
22.025	-0.320	0.012	
22.030	-0.009	0.003	
22.035	0.424	0.002	
22.040	-0.271	0.028	
22.045	-0.296	0.016	
22.050	0.189	-0.024	
22.055	-0.195	-0.044	
22.060	-0.398	-0.074	
22.065	0.099	-0.116	
22.070	-0.006	-0.125	
22.075	-0.418	-0.121	
22.080	-0.093	-0.140	
22.085	0.195	-0.143	
22.090	-0.348	-0.120	
22.095	-0.285	-0.123	
22.100	0.274	-0.131	
22.105	-0.149	-0.106	
22.110	-0.334	-0.090	
22.115	0.308	-0.090	
22.120	0.315	-0.045	
22.125	-0.238	0.017	
22.130	0.062	0.040	
22.135	0.212	0.049	
22.140	-0.416	0.047	
22.145	-0.502	-0.014	
22.150	-0.124	-0.113	
22.155	-0.381	-0.193	
22.160	-0.518	-0.261	
22.165	0.000	-0.312	
22.170	0.026	-0.302	
22.175	-0.361	-0.256	
22.180	0.056	-0.215	
22.185	0.495	-0.144	
22.190	-0.180	-0.043	
22.195	-0.107	0.016	
22.200	0.601	0.052	
22.205	0.067	0.114	
22.210	-0.215	0.147	
22.215	0.476	0.141	
22.220	0.404	0.165	
22.225	-0.232	0.195	
22.230	0.251	0.182	
22.235	0.633	0.184	
22.240	-0.206	0.212	
22.245	-0.082	0.192	
22.250	0.652	0.161	
22.255	0.139	0.178	
22.260	-0.151	0.190	
22.265	0.559	0.179	
22.270	0.534	0.210	
22.275	-0.134	0.255	
22.280	0.378	0.260	
22.285	0.697	0.275	
22.290	-0.092	0.309	
22.295	-0.021	0.292	
22.300	0.680	0.255	
22.305	0.126	0.257	
22.310	-0.149	0.247	
22.315	0.441	0.208	
22.320	0.303	0.199	
22.325	-0.239	0.195	
22.330	0.117	0.154	
22.335	0.488	0.128	
22.340	-0.210	0.132	
22.345	-0.169	0.105	
22.350	0.436	0.067	
22.355	-0.090	0.064	
22.360	-0.313	0.049	
22.365	0.227	0.009	
22.370	0.114	0.000	
22.375	-0.352	0.000	
22.380	0.012	-0.026	
22.385	0.380	-0.032	
22.390	-0.296	-0.007	
22.395	-0.261	-0.015	
22.400	0.297	-0.041	
22.405	-0.143	-0.037	
22.410	-0.335	-0.043	
22.415	0.227	-0.065	
22.420	0.137	-0.052	
22.425	-0.329	-0.028	
22.430	0.017	-0.035	
22.435	0.387	-0.027	
22.440	-0.229	0.007	
22.445	-0.194	0.011	
22.450	0.276	-0.005	
22.455	-0.182	-0.004	
22.460	-0.363	-0.023	
22.465	0.181	-0.062	
22.470	0.064	-0.067	
22.475	-0.355	-0.059	
22.480	-0.075	-0.077	
22.485	0.267	-0.083	
22.490	-0.291	-0.063	
22.495	-0.230	-0.067	
22.500	0.314	-0.076	
22.505	-0.148	-0.055	
22.510	-0.351	-0.050	
22.515	0.201	-0.068	
22.520	0.143	-0.056	
22.525	-0.308	-0.031	
22.530	0.068	-0.032	
22.535	0.476	-0.012	
22.540	-0.165	0.039	
22.545	-0.154	0.057	
22.550	0.233	0.044	
22.555	-0.274	0.031	
22.560	-0.479	-0.017	
22.565	-0.101	-0.100	
22.570	-0.127	-0.159	
22.575	-0.473	-0.197	
22.580	-0.133	-0.235	
22.585	0.287	-0.231	
22.590	-0.239	-0.177	
22.595	-0.140	-0.133	
22.600	0.512	-0.088	
22.605	0.037	-0.006	
22.610	-0.236	0.051	
22.615	0.425	0.069	
22.620	0.323	0.108	
22.625	-0.223	0.147	
22.630	0.253	0.145	
22.635	0.593	0.158	
22.640	-0.110	0.196	
22.645	0.011	0.196	
22.650	0.643	0.186	
22.655	0.047	0.209	
22.660	-0.178	0.207	
22.665	0.534	0.178	
22.670	0.460	0.194	
22.675	-0.136	0.226	
22.680	0.436	0.229	
22.685	0.811	0.260	
22.690	0.029	0.323	
22.695	0.140	0.341	
22.700	0.776	0.337	
22.705	0.142	0.358	
22.710	-0.119	0.345	
22.715	0.605	0.299	
22.720	0.447	0.292	
22.725	-0.137	0.297	
22.730	0.396	0.271	
22.735	0.631	0.268	
22.740	-0.124	0.288	
22.745	-0.044	0.260	
22.750	0.579	0.215	
22.755	-0.020	0.204	
22.760	-0.235	0.175	
22.765	0.404	0.124	
22.770	0.233	0.114	
22.775	-0.281	0.115	
22.780	0.064	0.082	
22.785	0.343	0.059	
22.790	-0.276	0.059	
22.795	-0.183	0.030	
22.800	0.314	-0.005	
22.805	-0.178	-0.009	
22.810	-0.328	-0.026	
22.815	0.195	-0.060	
22.820	0.003	-0.062	
22.825	-0.369	-0.059	
22.830	-0.029	-0.082	
22.835	0.283	-0.085	
22.840	-0.308	-0.060	
22.845	-0.213	-0.062	
22.850	0.322	-0.071	
22.855	-0.198	-0.051	
22.860	-0.346	-0.051	
22.865	0.134	-0.077	
22.870	-0.069	-0.082	
22.875	-0.436	-0.090	
22.880	-0.160	-0.128	
22.885	0.037	-0.156	
22.890	-0.378	-0.163	
22.895	-0.258	-0.181	
22.900	0.270	-0.185	
22.905	-0.172	-0.148	
22.910	-0.326	-0.121	
22.915	0.282	-0.111	
22.920	0.154	-0.067	
22.925	-0.288	-0.019	
22.930	0.117	-0.006	
22.935	0.447	0.019	
22.940	-0.172	0.067	
22.945	-0.006	0.083	
22.950	0.666	0.097	
22.955	0.151	0.155	
22.960	-0.163	0.191	
22.965	0.255	0.178	
22.970	-0.040	0.152	
22.975	-0.456	0.099	
22.980	-0.157	0.003	
22.985	0.027	-0.079	
22.990	-0.399	-0.128	
22.995	-0.258	-0.176	
23.000	0.200	-0.200	
23.005	-0.246	-0.180	
23.010	-0.360	-0.167	
23.015	0.148	-0.167	
23.020	-0.067	-0.143	
23.025	-0.422	-0.123	
23.030	-0.101	-0.138	
23.035	0.148	-0.141	
23.040	-0.331	-0.123	
23.045	-0.200	-0.125	
23.050	0.341	-0.120	
23.055	-0.194	-0.083	
23.060	-0.288	-0.064	
23.065	0.344	-0.063	
23.070	0.056	-0.030	
23.075	-0.229	0.003	
23.080	0.197	0.009	
23.085	0.346	0.034	
23.090	-0.246	0.069	
23.095	-0.130	0.061	
23.100	0.488	0.045	
23.105	0.023	0.069	
23.110	-0.098	0.088	
23.115	0.701	0.106	
23.120	0.460	0.176	
23.125	-0.151	0.246	
23.130	0.291	0.256	
23.135	0.534	0.258	
23.140	-0.134	0.268	
23.145	0.049	0.238	
23.150	0.675	0.209	
23.155	0.072	0.224	
23.160	-0.140	0.221	
23.165	0.523	0.193	
23.170	0.268	0.198	
23.175	-0.227	0.202	
23.180	0.201	0.168	
23.185	0.259	0.140	
23.190	-0.305	0.119	
23.195	-0.220	0.061	
23.200	0.236	-0.002	
23.205	-0.229	-0.032	
23.210	-0.354	-0.067	
23.215	0.125	-0.110	
23.220	-0.049	-0.117	
23.225	-0.410	-0.117	
23.230	-0.113	-0.141	
23.235	0.056	-0.153	
23.240	-0.404	-0.150	
23.245	-0.305	-0.169	
23.250	0.050	-0.192	
23.255	-0.328	-0.192	
23.260	-0.448	-0.206	
23.265	-0.011	-0.231	
23.270	-0.156	-0.230	
23.275	-0.467	-0.223	
23.280	-0.122	-0.235	
23.285	0.082	-0.226	
23.290	-0.410	-0.197	
23.295	-0.320	-0.195	
23.300	0.107	-0.202	
23.305	-0.300	-0.187	
23.310	-0.444	-0.188	
23.315	-0.056	-0.211	
23.320	-0.236	-0.220	
23.325	-0.561	-0.235	
23.330	-0.291	-0.274	
23.335	-0.182	-0.304	
23.340	-0.535	-0.318	
23.345	-0.412	-0.343	
23.350	-0.104	-0.359	
23.355	-0.392	-0.347	
23.360	-0.451	-0.339	
23.365	-0.053	-0.335	
23.370	-0.105	-0.302	
23.375	-0.375	-0.259	
23.380	-0.221	-0.240	
23.385	-0.291	-0.237	
23.390	-0.700	-0.262	
23.395	-0.648	-0.333	
23.400	-0.453	-0.420	
23.405	-0.642	-0.486	
23.410	-0.681	-0.541	
23.415	-0.346	-0.576	
23.420	-0.422	-0.570	
23.425	-0.579	-0.544	
23.430	-0.265	-0.516	
23.435	-0.221	-0.468	
23.440	-0.485	-0.413	
23.445	-0.252	-0.377	
23.450	0.015	-0.334	
23.455	-0.325	-0.277	
23.460	-0.380	-0.244	
23.465	-0.053	-0.236	
23.470	-0.142	-0.217	
23.475	-0.319	-0.198	
23.480	0.008	-0.188	
23.485	0.152	-0.155	
23.490	-0.200	-0.105	
23.495	-0.055	-0.075	
23.500	0.407	-0.042	
23.505	-0.005	0.017	
23.510	-0.003	0.061	
23.515	0.619	0.099	
23.520	0.491	0.179	
23.525	0.157	0.267	
23.530	0.686	0.329	
23.535	0.726	0.403	
23.540	0.126	0.470	
23.545	0.412	0.480	
23.550	0.724	0.473	
23.555	0.154	0.476	
23.560	0.143	0.443	
23.565	0.591	0.393	
23.570	0.195	0.366	
23.575	-0.146	0.324	
23.580	0.261	0.251	
23.585	0.283	0.199	
23.590	-0.169	0.167	
23.595	0.033	0.120	
23.600	0.395	0.088	
23.605	-0.049	0.091	
23.610	-0.058	0.088	
23.615	0.433	0.082	
23.620	0.166	0.109	
23.625	-0.114	0.132	
23.630	0.393	0.134	
23.635	0.416	0.161	
23.640	-0.111	0.196	
23.645	0.218	0.196	
23.650	0.546	0.200	
23.655	-0.034	0.224	
23.660	-0.055	0.214	
23.665	0.450	0.184	
23.670	0.075	0.177	
23.675	-0.185	0.161	
23.680	0.184	0.118	
23.685	0.230	0.094	
23.690	-0.175	0.087	
23.695	-0.006	0.061	
23.700	0.293	0.042	
23.705	-0.139	0.045	
23.710	-0.174	0.031	
23.715	0.201	0.005	
23.720	-0.087	-0.002	
23.725	-0.284	-0.017	
23.730	0.035	-0.050	
23.735	0.068	-0.063	
23.740	-0.264	-0.063	
23.745	-0.099	-0.076	
23.750	0.180	-0.082	
23.755	-0.192	-0.067	
23.760	-0.227	-0.067	
23.765	0.117	-0.079	
23.770	-0.089	-0.074	
23.775	-0.207	-0.070	
23.780	0.300	-0.065	
23.785	0.419	-0.013	
23.790	-0.192	0.059	
23.795	-0.220	0.075	
23.800	-0.177	0.031	
23.805	-0.460	-0.043	
23.810	-0.499	-0.146	
23.815	-0.168	-0.244	
23.820	-0.217	-0.296	
23.825	-0.337	-0.310	
23.830	0.076	-0.297	
23.835	0.247	-0.233	
23.840	-0.111	-0.138	
23.845	0.160	-0.057	
23.850	0.489	0.026	
23.855	0.061	0.117	
23.860	0.061	0.171	
23.865	0.488	0.197	
23.870	0.158	0.229	
23.875	-0.113	0.234	
23.880	0.343	0.206	
23.885	0.370	0.198	
23.890	-0.060	0.205	
23.895	0.189	0.190	
23.900	0.485	0.185	
23.905	0.059	0.205	
23.910	0.096	0.209	
23.915	0.596	0.211	
23.920	0.282	0.246	
23.925	0.012	0.272	
23.930	0.572	0.275	
23.935	0.619	0.307	
23.940	0.148	0.357	
23.945	0.428	0.377	
23.950	0.694	0.396	
23.955	0.174	0.424	
23.960	0.128	0.413	
23.965	0.561	0.378	
23.970	0.207	0.358	
23.975	-0.101	0.322	
23.980	0.297	0.259	
23.985	0.302	0.217	
23.990	-0.145	0.191	
23.995	0.044	0.146	
24.000	0.287	0.107	
24.005	-0.133	0.091	
24.010	-0.142	0.060	
24.015	0.238	0.026	
24.020	-0.052	0.017	
24.025	-0.241	0.005	
24.030	0.120	-0.021	
24.035	0.041	-0.028	
24.040	-0.284	-0.030	
24.045	-0.142	-0.056	
24.050	0.049	-0.083	
24.055	-0.287	-0.096	
24.060	-0.299	-0.122	
24.065	0.001	-0.154	
24.070	-0.169	-0.162	
24.075	-0.339	-0.168	
24.080	-0.092	-0.183	
24.085	-0.058	-0.183	
24.090	-0.320	-0.174	
24.095	-0.163	-0.177	
24.100	0.055	-0.173	
24.105	-0.261	-0.154	
24.110	-0.261	-0.149	
24.115	-0.008	-0.156	
24.120	-0.204	-0.153	
24.125	-0.326	-0.157	
24.130	-0.026	-0.171	
24.135	-0.035	-0.165	
24.140	-0.293	-0.150	
24.145	-0.122	-0.149	
24.150	0.087	-0.142	
24.155	-0.249	-0.121	
24.160	-0.224	-0.118	
24.165	0.032	-0.125	
24.170	-0.160	-0.121	
24.175	-0.282	-0.122	
24.180	0.099	-0.129	
24.185	0.215	-0.103	
24.190	-0.130	-0.053	
24.195	0.235	-0.009	
24.200	0.294	0.043	
24.205	-0.285	0.086	
24.210	-0.381	0.060	
24.215	-0.183	-0.020	
24.220	-0.325	-0.105	
24.225	-0.421	-0.186	
24.230	-0.114	-0.250	
24.235	-0.050	-0.268	
24.240	-0.244	-0.248	
24.245	0.011	-0.217	
24.250	0.363	-0.155	
24.255	-0.095	-0.067	
24.260	-0.087	-0.007	
24.265	0.369	0.029	
24.270	0.108	0.076	
24.275	-0.089	0.108	
24.280	0.419	0.120	
24.285	0.375	0.156	
24.290	-0.078	0.195	
24.295	0.250	0.200	
24.300	0.559	0.211	
24.305	0.152	0.247	
24.310	0.140	0.266	
24.315	0.573	0.273	
24.320	0.314	0.299	
24.325	0.096	0.317	
24.330	0.587	0.318	
24.335	0.584	0.345	
24.340	0.183	0.384	
24.345	0.534	0.401	
24.350	0.811	0.430	
24.355	0.265	0.477	
24.360	0.288	0.487	
24.365	0.758	0.476	
24.370	0.430	0.486	
24.375	0.108	0.480	
24.380	0.532	0.444	
24.385	0.503	0.421	
24.390	0.026	0.404	
24.395	0.270	0.359	
24.400	0.489	0.320	
24.405	-0.014	0.298	
24.410	-0.008	0.253	
24.415	0.402	0.202	
24.420	0.068	0.179	
24.425	-0.143	0.153	
24.430	0.244	0.113	
24.435	0.151	0.096	
24.440	-0.195	0.086	
24.445	0.008	0.054	
24.450	0.276	0.033	
24.455	-0.128	0.036	
24.460	-0.096	0.028	
24.465	0.271	0.016	
24.470	-0.060	0.025	
24.475	-0.195	0.023	
24.480	0.161	0.005	
24.485	0.108	0.005	
24.490	-0.221	0.012	
24.495	-0.032	-0.004	
24.500	0.183	-0.016	
24.505	-0.175	-0.011	
24.510	-0.137	-0.021	
24.515	0.181	-0.034	
24.520	-0.127	-0.030	
24.525	-0.300	-0.040	
24.530	-0.017	-0.071	
24.535	-0.040	-0.091	
24.540	-0.294	-0.102	
24.545	-0.131	-0.123	
24.550	0.030	-0.136	
24.555	-0.271	-0.132	
24.560	-0.241	-0.141	
24.565	0.038	-0.152	
24.570	-0.146	-0.144	
24.575	-0.273	-0.138	
24.580	0.011	-0.141	
24.585	-0.011	-0.128	
24.590	-0.232	-0.110	
24.595	-0.002	-0.102	
24.600	0.351	-0.074	
24.605	-0.026	-0.016	
24.610	-0.120	0.024	
24.615	-0.076	0.023	
24.620	-0.374	-0.011	
24.625	-0.546	-0.089	
24.630	-0.319	-0.193	
24.635	-0.267	-0.276	
24.640	-0.410	-0.324	
24.645	-0.174	-0.346	
24.650	0.081	-0.324	
24.655	-0.201	-0.263	
24.660	-0.156	-0.207	
24.665	0.223	-0.154	
24.670	-0.023	-0.088	
24.675	-0.154	-0.038	
24.680	0.245	-0.010	
24.685	0.192	0.030	
24.690	-0.157	0.066	
24.695	0.119	0.071	
24.700	0.383	0.082	
24.705	-0.031	0.112	
24.710	0.053	0.123	
24.715	0.466	0.131	
24.720	0.114	0.161	
24.725	-0.075	0.175	
24.730	0.430	0.168	
24.735	0.401	0.188	
24.740	-0.002	0.220	
24.745	0.343	0.229	
24.750	0.625	0.252	
24.755	0.195	0.299	
24.760	0.267	0.326	
24.765	0.674	0.344	
24.770	0.332	0.379	
24.775	0.081	0.392	
24.780	0.587	0.376	
24.785	0.488	0.379	
24.790	-0.002	0.382	
24.795	0.268	0.348	
24.800	0.466	0.313	
24.805	-0.035	0.292	
24.810	-0.037	0.245	
24.815	0.309	0.185	
24.820	-0.027	0.147	
24.825	-0.174	0.105	
24.830	0.105	0.053	
24.835	0.055	0.021	
24.840	-0.212	0.002	
24.845	0.017	-0.024	
24.850	0.174	-0.033	
24.855	-0.191	-0.023	
24.860	-0.148	-0.030	
24.865	0.181	-0.042	
24.870	-0.117	-0.036	
24.875	-0.238	-0.040	
24.880	0.070	-0.058	
24.885	0.032	-0.060	
24.890	-0.249	-0.055	
24.895	-0.058	-0.066	
24.900	0.151	-0.070	
24.905	-0.185	-0.056	
24.910	-0.133	-0.055	
24.915	0.212	-0.055	
24.920	-0.053	-0.034	
24.925	-0.160	-0.020	
24.930	0.113	-0.022	
24.935	0.108	-0.010	
24.940	-0.195	0.003	
24.945	-0.003	-0.004	
24.950	0.158	-0.009	
24.955	-0.185	-0.003	
24.960	-0.134	-0.016	
24.965	0.197	-0.031	
24.970	-0.107	-0.026	
24.975	-0.207	-0.029	
24.980	0.134	-0.043	
24.985	0.050	-0.037	
24.990	-0.230	-0.027	
24.995	-0.014	-0.036	
25.000	0.245	-0.035	
25.005	-0.122	-0.012	
25.010	-0.055	-0.000	
25.015	0.405	0.013	
25.020	-0.032	0.051	
25.025	-0.317	0.061	
25.030	-0.244	0.013	
25.035	-0.355	-0.067	
25.040	-0.547	-0.163	
25.045	-0.325	-0.262	
25.050	-0.137	-0.324	
25.055	-0.291	-0.336	
25.060	-0.201	-0.322	
25.065	0.137	-0.282	
25.070	-0.089	-0.210	
25.075	-0.182	-0.147	
25.080	0.194	-0.100	
25.085	0.093	-0.045	
25.090	-0.200	-0.001	
25.095	0.046	0.008	
25.100	0.212	0.016	
25.105	-0.151	0.032	
25.110	-0.055	0.027	
25.115	0.383	0.025	
25.120	0.015	0.053	
25.125	-0.124	0.070	
25.130	0.317	0.070	
25.135	0.247	0.092	
25.140	-0.101	0.118	
25.145	0.172	0.119	
25.150	0.384	0.127	
25.155	-0.034	0.149	
25.160	0.072	0.150	
25.165	0.492	0.151	
25.170	0.145	0.179	
25.175	-0.018	0.195	
25.180	0.405	0.190	
25.185	0.309	0.204	
25.190	-0.099	0.216	
25.195	0.200	0.196	
25.200	0.412	0.183	
25.205	-0.090	0.186	
25.210	-0.096	0.159	
25.215	0.218	0.114	
25.220	-0.145	0.079	
25.225	-0.271	0.032	
25.230	0.014	-0.028	
25.235	-0.096	-0.068	
25.240	-0.328	-0.099	
25.245	-0.137	-0.137	
25.250	-0.095	-0.162	
25.255	-0.377	-0.177	
25.260	-0.313	-0.205	
25.265	-0.075	-0.231	
25.270	-0.246	-0.234	
25.275	-0.355	-0.234	
25.280	-0.101	-0.240	
25.285	-0.154	-0.232	
25.290	-0.392	-0.221	
25.295	-0.166	-0.227	
25.300	-0.029	-0.222	
25.305	-0.299	-0.203	
25.310	-0.239	-0.196	
25.315	-0.037	-0.194	
25.320	-0.261	-0.184	
25.325	-0.401	-0.189	
25.330	-0.149	-0.213	
25.335	-0.197	-0.226	
25.340	-0.413	-0.235	
25.345	-0.246	-0.255	
25.350	-0.194	-0.268	
25.355	-0.453	-0.275	
25.360	-0.406	-0.297	
25.365	-0.241	-0.323	
25.370	-0.464	-0.338	
25.375	-0.547	-0.362	
25.380	-0.284	-0.392	
25.385	-0.381	-0.404	
25.390	-0.590	-0.410	
25.395	-0.418	-0.429	
25.400	-0.296	-0.439	
25.405	-0.515	-0.433	
25.410	-0.438	-0.431	
25.415	-0.186	-0.424	
25.420	-0.331	-0.394	
25.425	-0.435	-0.366	
25.430	-0.279	-0.353	
25.435	-0.509	-0.351	
25.440	-0.814	-0.382	
25.445	-0.654	-0.456	
25.450	-0.528	-0.530	
25.455	-0.743	-0.582	
25.460	-0.627	-0.622	
25.465	-0.313	-0.633	
25.470	-0.450	-0.600	
25.475	-0.541	-0.554	
25.480	-0.242	-0.511	
25.485	-0.299	-0.457	
25.490	-0.544	-0.410	
25.495	-0.332	-0.390	
25.500	-0.194	-0.373	
25.505	-0.474	-0.351	
25.510	-0.386	-0.346	
25.515	-0.105	-0.342	
25.520	-0.329	-0.320	
25.525	-0.413	-0.304	
25.530	-0.069	-0.297	
25.535	-0.145	-0.270	
25.540	-0.366	-0.241	
25.545	-0.041	-0.224	
25.550	0.314	-0.181	
25.555	-0.185	-0.108	
25.560	-0.024	-0.056	
25.565	0.654	-0.000	
25.570	0.354	0.103	
25.575	0.078	0.201	
25.580	0.825	0.273	
25.585	0.819	0.376	
25.590	0.291	0.484	
25.595	0.808	0.550	
25.600	1.148	0.622	
25.605	0.404	0.704	
25.610	0.527	0.729	
25.615	1.087	0.724	
25.620	0.572	0.739	
25.625	0.248	0.725	
25.630	0.989	0.679	
25.635	0.846	0.672	
25.640	0.198	0.678	
25.645	0.724	0.647	
25.650	1.035	0.635	
25.655	0.239	0.653	
25.660	0.331	0.626	
25.665	1.034	0.586	
25.670	0.553	0.595	
25.675	0.183	0.596	
25.680	0.957	0.574	
25.685	0.905	0.595	
25.690	0.256	0.635	
25.695	0.858	0.643	
25.700	1.184	0.674	
25.705	0.373	0.731	
25.710	0.520	0.737	
25.715	1.194	0.724	
25.720	0.643	0.748	
25.725	0.227	0.747	
25.730	0.947	0.703	
25.735	0.768	0.684	
25.740	0.023	0.665	
25.745	0.535	0.595	
25.750	0.861	0.541	
25.755	0.081	0.522	
25.760	0.160	0.471	
25.765	0.779	0.414	
25.770	0.203	0.398	
25.775	-0.116	0.366	
25.780	0.579	0.308	
25.785	0.451	0.291	
25.790	-0.160	0.291	
25.795	0.322	0.257	
25.800	0.657	0.246	
25.805	-0.134	0.265	
25.810	0.009	0.243	
25.815	0.634	0.212	
25.820	0.064	0.219	
25.825	-0.131	0.211	
25.830	0.657	0.190	
25.835	0.348	0.215	
25.840	-0.358	0.233	
25.845	-0.153	0.175	
25.850	0.067	0.087	
25.855	-0.387	0.009	
25.860	-0.291	-0.078	
25.865	0.265	-0.138	
25.870	-0.127	-0.137	
25.875	-0.268	-0.123	
25.880	0.399	-0.106	
25.885	0.360	-0.037	
25.890	-0.223	0.045	
25.895	0.226	0.084	
25.900	0.660	0.128	
25.905	-0.085	0.194	
25.910	0.003	0.213	
25.915	0.698	0.212	
25.920	0.087	0.240	
25.925	-0.153	0.243	
25.930	0.555	0.216	
25.935	0.436	0.226	
25.940	-0.149	0.249	
25.945	0.277	0.233	
25.950	0.579	0.228	
25.955	-0.107	0.244	
25.960	0.047	0.227	
25.965	0.770	0.211	
25.970	0.230	0.248	
25.975	-0.069	0.274	
25.980	0.713	0.274	
25.985	0.520	0.309	
25.990	-0.117	0.345	
25.995	0.405	0.331	
26.000	0.709	0.328	
26.005	-0.075	0.346	
26.010	0.024	0.318	
26.015	0.599	0.272	
26.020	-0.021	0.255	
26.025	-0.215	0.215	
26.030	0.386	0.153	
26.035	0.189	0.128	
26.040	-0.303	0.114	
26.045	0.067	0.069	
26.050	0.376	0.044	
26.055	-0.264	0.050	
26.060	-0.194	0.027	
26.065	0.364	-0.002	
26.070	-0.165	0.001	
26.075	-0.357	-0.013	
26.080	0.189	-0.049	
26.085	0.011	-0.056	
26.090	-0.395	-0.058	
26.095	-0.056	-0.087	
26.100	0.273	-0.096	
26.105	-0.290	-0.073	
26.110	-0.186	-0.071	
26.115	0.364	-0.071	
26.120	-0.142	-0.039	
26.125	-0.313	-0.027	
26.130	0.229	-0.041	
26.135	0.059	-0.031	
26.140	-0.349	-0.020	
26.145	-0.012	-0.041	
26.150	0.308	-0.047	
26.155	-0.299	-0.027	
26.160	-0.221	-0.036	
26.165	0.302	-0.054	
26.170	-0.182	-0.044	
26.175	-0.337	-0.049	
26.180	0.183	-0.073	
26.185	-0.053	-0.073	
26.190	-0.421	-0.075	
26.195	-0.089	-0.108	
26.200	0.190	-0.123	
26.205	-0.332	-0.109	
26.210	-0.236	-0.115	
26.215	0.312	-0.120	
26.220	-0.154	-0.089	
26.225	-0.294	-0.071	
26.230	0.370	-0.066	
26.235	0.229	-0.020	
26.240	-0.316	0.030	
26.245	-0.128	0.024	
26.250	-0.053	-0.012	
26.255	-0.512	-0.062	
26.260	-0.387	-0.143	
26.265	0.052	-0.213	
26.270	-0.268	-0.234	
26.275	-0.399	-0.242	
26.280	0.102	-0.245	
26.285	0.012	-0.211	
26.290	-0.320	-0.163	
26.295	0.146	-0.132	
26.300	0.468	-0.072	
26.305	-0.165	0.013	
26.310	0.027	0.060	
26.315	0.710	0.100	
26.320	0.096	0.172	
26.325	-0.134	0.211	
26.330	0.598	0.211	
26.335	0.450	0.242	
26.340	-0.148	0.275	
26.345	0.453	0.268	
26.350	0.750	0.285	
26.355	-0.020	0.330	
26.360	0.215	0.334	
26.365	0.915	0.335	
26.370	0.351	0.384	
26.375	0.062	0.415	
26.380	0.912	0.418	
26.385	0.729	0.462	
26.390	0.029	0.510	
26.395	0.675	0.506	
26.400	0.979	0.520	
26.405	0.126	0.558	
26.410	0.276	0.543	
26.415	0.937	0.510	
26.420	0.279	0.512	
26.425	-0.038	0.486	
26.430	0.721	0.426	
26.435	0.508	0.406	
26.440	-0.133	0.395	
26.445	0.373	0.345	
26.450	0.630	0.315	
26.455	-0.149	0.310	
26.460	-0.063	0.263	
26.465	0.518	0.202	
26.470	-0.070	0.177	
26.475	-0.239	0.138	
26.480	0.383	0.086	
26.485	0.192	0.078	
26.490	-0.264	0.082	
26.495	0.174	0.062	
26.500	0.463	0.066	
26.505	-0.195	0.097	
26.510	-0.056	0.096	
26.515	0.565	0.089	
26.520	-0.072	0.116	
26.525	-0.247	0.115	
26.530	0.355	0.084	
26.535	0.157	0.082	
26.540	-0.300	0.083	
26.545	0.155	0.055	
26.550	0.384	0.049	
26.555	-0.299	0.066	
26.560	-0.197	0.043	
26.565	0.343	0.008	
26.570	-0.195	0.003	
26.575	-0.369	-0.020	
26.580	0.081	-0.066	
26.585	-0.081	-0.090	
26.590	-0.416	-0.108	
26.595	-0.078	-0.143	
26.600	0.168	-0.152	
26.605	-0.343	-0.133	
26.610	-0.229	-0.133	
26.615	0.233	-0.135	
26.620	-0.232	-0.111	
26.625	-0.367	-0.106	
26.630	0.154	-0.121	
26.635	-0.002	-0.110	
26.640	-0.343	-0.092	
26.645	0.130	-0.093	
26.650	0.351	-0.063	
26.655	-0.390	-0.017	
26.660	-0.361	-0.028	
26.665	-0.087	-0.083	
26.670	-0.450	-0.140	
26.675	-0.566	-0.214	
26.680	-0.125	-0.290	
26.685	-0.174	-0.319	
26.690	-0.460	-0.318	
26.695	-0.082	-0.313	
26.700	0.215	-0.271	
26.705	-0.303	-0.199	
26.710	-0.153	-0.152	
26.715	0.404	-0.110	
26.720	-0.143	-0.046	
26.725	-0.277	-0.013	
26.730	0.355	-0.010	
26.735	0.085	0.017	
26.740	-0.306	0.037	
26.745	0.163	0.023	
26.750	0.457	0.034	
26.755	-0.198	0.074	
26.760	-0.055	0.080	
26.765	0.579	0.081	
26.770	-0.043	0.115	
26.775	-0.175	0.126	
26.780	0.573	0.116	
26.785	0.389	0.152	
26.790	-0.188	0.196	
26.795	0.355	0.198	
26.800	0.614	0.215	
26.805	-0.116	0.251	
26.810	0.056	0.243	
26.815	0.669	0.225	
26.820	0.011	0.239	
26.825	-0.185	0.226	
26.830	0.460	0.182	
26.835	0.181	0.169	
26.840	-0.281	0.157	
26.845	0.073	0.108	
26.850	0.283	0.070	
26.855	-0.311	0.054	
26.860	-0.200	0.012	
26.865	0.255	-0.033	
26.870	-0.229	-0.045	
26.875	-0.358	-0.068	
26.880	0.133	-0.105	
26.885	-0.134	-0.114	
26.890	-0.460	-0.125	
26.895	-0.099	-0.160	
26.900	0.090	-0.175	
26.905	-0.407	-0.164	
26.910	-0.279	-0.175	
26.915	0.107	-0.188	
26.920	-0.308	-0.177	
26.925	-0.424	-0.182	
26.930	0.003	-0.204	
26.935	-0.162	-0.204	
26.940	-0.497	-0.204	
26.945	-0.174	-0.228	
26.950	-0.020	-0.237	
26.955	-0.444	-0.228	
26.960	-0.314	-0.238	
26.965	0.065	-0.246	
26.970	-0.339	-0.228	
26.975	-0.450	-0.226	
26.980	0.012	-0.240	
26.985	-0.157	-0.230	
26.990	-0.471	-0.218	
26.995	-0.124	-0.228	
27.000	0.030	-0.223	
27.005	-0.416	-0.201	
27.010	-0.277	-0.203	
27.015	0.078	-0.208	
27.020	-0.361	-0.194	
27.025	-0.489	-0.204	
27.030	-0.078	-0.237	
27.035	-0.224	-0.249	
27.040	-0.531	-0.258	
27.045	-0.175	-0.282	
27.050	-0.017	-0.283	
27.055	-0.447	-0.262	
27.060	-0.310	-0.259	
27.065	0.088	-0.255	
27.070	-0.345	-0.228	
27.075	-0.457	-0.222	
27.080	0.011	-0.235	
27.085	-0.116	-0.224	
27.090	-0.384	-0.205	
27.095	0.097	-0.194	
27.100	0.352	-0.145	
27.105	-0.343	-0.074	
27.110	-0.348	-0.056	
27.115	-0.160	-0.092	
27.120	-0.561	-0.150	
27.125	-0.703	-0.242	
27.130	-0.319	-0.348	
27.135	-0.421	-0.417	
27.140	-0.669	-0.459	
27.145	-0.351	-0.492	
27.150	-0.186	-0.489	
27.155	-0.534	-0.456	
27.160	-0.374	-0.430	
27.165	0.017	-0.396	
27.170	-0.355	-0.339	
27.175	-0.451	-0.301	
27.180	0.001	-0.285	
27.185	-0.149	-0.252	
27.190	-0.464	-0.224	
27.195	-0.111	-0.224	
27.200	0.061	-0.211	
27.205	-0.410	-0.185	
27.210	-0.255	-0.184	
27.215	0.206	-0.183	
27.220	-0.258	-0.153	
27.225	-0.355	-0.141	
27.230	0.207	-0.144	
27.235	-0.056	-0.119	
27.240	-0.377	-0.098	
27.245	0.114	-0.101	
27.250	0.372	-0.074	
27.255	-0.244	-0.019	
27.260	-0.098	0.002	
27.265	0.477	0.014	
27.270	-0.116	0.051	
27.275	-0.236	0.060	
27.280	0.407	0.045	
27.285	0.114	0.062	
27.290	-0.306	0.073	
27.295	0.076	0.046	
27.300	0.274	0.030	
27.305	-0.316	0.030	
27.310	-0.188	0.000	
27.315	0.287	-0.034	
27.320	-0.235	-0.037	
27.325	-0.337	-0.056	
27.330	0.195	-0.088	
27.335	-0.067	-0.088	
27.340	-0.387	-0.087	
27.345	-0.012	-0.110	
27.350	0.175	-0.112	
27.355	-0.352	-0.093	
27.360	-0.178	-0.099	
27.365	0.354	-0.100	
27.370	-0.261	-0.070	
27.375	-0.349	-0.066	
27.380	0.218	-0.086	
27.385	-0.079	-0.080	
27.390	-0.409	-0.078	
27.395	0.020	-0.103	
27.400	0.212	-0.104	
27.405	-0.334	-0.080	
27.410	-0.156	-0.082	
27.415	0.344	-0.081	
27.420	-0.221	-0.052	
27.425	-0.345	-0.048	
27.430	0.230	-0.069	
27.435	-0.035	-0.063	
27.440	-0.370	-0.058	
27.445	0.075	-0.077	
27.450	0.262	-0.070	
27.455	-0.316	-0.041	
27.460	-0.131	-0.042	
27.465	0.343	-0.046	
27.470	-0.264	-0.026	
27.475	-0.351	-0.036	
27.480	0.215	-0.069	
27.485	-0.053	-0.071	
27.490	-0.407	-0.073	
27.495	-0.008	-0.101	
27.500	0.200	-0.106	
27.505	-0.370	-0.088	
27.510	-0.194	-0.097	
27.515	0.303	-0.104	
27.520	-0.242	-0.081	
27.525	-0.337	-0.078	
27.530	0.215	-0.095	
27.535	-0.060	-0.084	
27.540	-0.364	-0.076	
27.545	0.151	-0.087	
27.550	0.447	-0.059	
27.555	-0.159	0.007	
27.560	0.082	0.048	
27.565	0.378	0.077	
27.570	-0.320	0.101	
27.575	-0.462	0.060	
27.580	-0.069	-0.031	
27.585	-0.249	-0.109	
27.590	-0.543	-0.179	
27.595	-0.139	-0.248	
27.600	0.097	-0.270	
27.605	-0.345	-0.244	
27.610	-0.127	-0.219	
27.615	0.483	-0.172	
27.620	-0.136	-0.085	
27.625	-0.232	-0.027	
27.630	0.450	-0.000	
27.635	0.209	0.053	
27.640	-0.235	0.099	
27.645	0.326	0.106	
27.650	0.454	0.130	
27.655	-0.213	0.165	
27.660	0.040	0.155	
27.665	0.622	0.144	
27.670	-0.064	0.168	
27.675	-0.159	0.164	
27.680	0.572	0.141	
27.685	0.268	0.161	
27.690	-0.192	0.184	
27.695	0.437	0.176	
27.700	0.634	0.200	
27.705	-0.096	0.249	
27.710	0.224	0.258	
27.715	0.817	0.269	
27.720	0.122	0.316	
27.725	-0.050	0.327	
27.730	0.663	0.304	
27.735	0.319	0.310	
27.740	-0.194	0.307	
27.745	0.389	0.263	
27.750	0.532	0.245	
27.755	-0.185	0.249	
27.760	-0.021	0.212	
27.765	0.501	0.167	
27.770	-0.156	0.152	
27.775	-0.259	0.114	
27.780	0.361	0.059	
27.785	0.044	0.045	
27.790	-0.334	0.035	
27.795	0.090	-0.001	
27.800	0.236	-0.015	
27.805	-0.328	-0.008	
27.810	-0.151	-0.029	
27.815	0.352	-0.047	
27.820	-0.206	-0.031	
27.825	-0.276	-0.033	
27.830	0.319	-0.048	
27.835	-0.035	-0.032	
27.840	-0.366	-0.023	
27.845	0.053	-0.048	
27.850	0.207	-0.053	
27.855	-0.326	-0.040	
27.860	-0.156	-0.053	
27.865	0.270	-0.067	
27.870	-0.264	-0.056	
27.875	-0.325	-0.067	
27.880	0.271	-0.090	
27.885	-0.058	-0.077	
27.890	-0.386	-0.067	
27.895	0.072	-0.085	
27.900	0.203	-0.080	
27.905	-0.345	-0.056	
27.910	-0.143	-0.064	
27.915	0.370	-0.067	
27.920	-0.183	-0.038	
27.925	-0.284	-0.029	
27.930	0.320	-0.039	
27.935	-0.002	-0.021	
27.940	-0.348	-0.009	
27.945	0.119	-0.028	
27.950	0.300	-0.024	
27.955	-0.329	0.001	
27.960	-0.149	-0.011	
27.965	0.332	-0.028	
27.970	-0.239	-0.019	
27.975	-0.306	-0.032	
27.980	0.247	-0.060	
27.985	-0.070	-0.057	
27.990	-0.370	-0.058	
27.995	0.061	-0.082	
28.000	0.175	-0.082	
28.005	-0.361	-0.065	
28.010	-0.166	-0.077	
28.015	0.287	-0.088	
28.020	-0.249	-0.070	
28.025	-0.319	-0.072	
28.030	0.219	-0.091	
28.035	-0.044	-0.080	
28.040	-0.299	-0.067	
28.045	0.376	-0.061	
28.050	0.639	0.004	
28.055	-0.172	0.103	
28.060	-0.107	0.142	
28.065	0.177	0.125	
28.070	-0.416	0.086	
28.075	-0.517	-0.003	
28.080	-0.093	-0.118	
28.085	-0.239	-0.196	
28.090	-0.444	-0.245	
28.095	0.029	-0.275	
28.100	0.203	-0.247	
28.105	-0.302	-0.182	
28.110	-0.052	-0.137	
28.115	0.521	-0.084	
28.120	-0.134	-0.003	
28.125	-0.197	0.040	
28.130	0.456	0.050	
28.135	0.116	0.084	
28.140	-0.265	0.105	
28.145	0.326	0.092	
28.150	0.462	0.108	
28.155	-0.182	0.145	
28.160	0.101	0.145	
28.165	0.655	0.150	
28.170	-0.055	0.187	
28.175	-0.133	0.190	
28.180	0.639	0.171	
28.185	0.265	0.195	
28.190	-0.188	0.216	
28.195	0.500	0.205	
28.200	0.639	0.228	
28.205	-0.108	0.275	
28.210	0.280	0.279	
28.215	0.809	0.288	
28.220	0.040	0.329	
28.225	-0.075	0.326	
28.230	0.623	0.288	
28.235	0.233	0.281	
28.240	-0.212	0.266	
28.245	0.399	0.219	
28.250	0.447	0.204	
28.255	-0.235	0.207	
28.260	0.021	0.170	
28.265	0.503	0.135	
28.270	-0.195	0.131	
28.275	-0.264	0.098	
28.280	0.291	0.044	
28.285	-0.095	0.019	
28.290	-0.381	-0.009	
28.295	0.110	-0.056	
28.300	0.241	-0.065	
28.305	-0.320	-0.045	
28.310	-0.119	-0.051	
28.315	0.366	-0.053	
28.320	-0.221	-0.026	
28.325	-0.296	-0.026	
28.330	0.288	-0.045	
28.335	-0.066	-0.036	
28.340	-0.370	-0.035	
28.345	0.052	-0.063	
28.350	0.165	-0.070	
28.355	-0.380	-0.060	
28.360	-0.159	-0.079	
28.365	0.264	-0.094	
28.370	-0.281	-0.080	
28.375	-0.329	-0.087	
28.380	0.166	-0.110	
28.385	-0.151	-0.108	
28.390	-0.436	-0.113	
28.395	-0.031	-0.144	
28.400	0.052	-0.153	
28.405	-0.430	-0.145	
28.410	-0.212	-0.162	
28.415	0.223	-0.169	
28.420	-0.311	-0.145	
28.425	-0.354	-0.142	
28.430	0.175	-0.152	
28.435	-0.134	-0.136	
28.440	-0.395	-0.125	
28.445	0.091	-0.135	
28.450	0.154	-0.118	
28.455	-0.355	-0.086	
28.460	-0.133	-0.086	
28.465	0.328	-0.083	
28.470	-0.268	-0.055	
28.475	-0.320	-0.056	
28.480	0.229	-0.077	
28.485	-0.127	-0.073	
28.490	-0.404	-0.077	
28.495	0.030	-0.107	
28.500	0.142	-0.111	
28.505	-0.363	-0.095	
28.510	-0.153	-0.103	
28.515	0.296	-0.106	
28.520	-0.255	-0.079	
28.525	-0.335	-0.076	
28.530	0.209	-0.094	
28.535	-0.098	-0.086	
28.540	-0.380	-0.083	
28.545	0.126	-0.100	
28.550	0.303	-0.082	
28.555	-0.233	-0.035	
28.560	0.137	-0.006	
28.565	0.613	0.039	
28.570	-0.233	0.106	
28.575	-0.410	0.107	
28.580	-0.079	0.036	
28.585	-0.313	-0.046	
28.590	-0.547	-0.136	
28.595	-0.130	-0.226	
28.600	0.003	-0.266	
28.605	-0.396	-0.260	
28.610	-0.137	-0.252	
28.615	0.341	-0.217	
28.620	-0.224	-0.145	
28.625	-0.242	-0.099	
28.630	0.445	-0.070	
28.635	0.053	-0.011	
28.640	-0.288	0.033	
28.645	0.326	0.039	
28.650	0.419	0.071	
28.655	-0.233	0.116	
28.660	0.075	0.119	
28.665	0.578	0.121	
28.670	-0.107	0.151	
28.675	-0.120	0.149	
28.680	0.616	0.133	
28.685	0.161	0.160	
28.690	-0.224	0.176	
28.695	0.401	0.157	
28.700	0.498	0.168	
28.705	-0.171	0.199	
28.710	0.223	0.195	
28.715	0.764	0.205	
28.720	0.062	0.256	
28.725	-0.002	0.274	
28.730	0.745	0.270	
28.735	0.320	0.302	
28.740	-0.172	0.317	
28.745	0.486	0.288	
28.750	0.524	0.281	
28.755	-0.192	0.288	
28.760	0.136	0.251	
28.765	0.590	0.217	
28.770	-0.133	0.215	
28.775	-0.163	0.182	
28.780	0.501	0.134	
28.785	-0.002	0.124	
28.790	-0.306	0.105	
28.795	0.219	0.058	
28.800	0.273	0.043	
28.805	-0.281	0.050	
28.810	-0.046	0.029	
28.815	0.433	0.016	
28.820	-0.206	0.035	
28.825	-0.253	0.027	
28.830	0.361	0.002	
28.835	-0.049	0.009	
28.840	-0.331	0.007	
28.845	0.175	-0.019	
28.850	0.216	-0.018	
28.855	-0.322	-0.001	
28.860	-0.075	-0.015	
28.865	0.367	-0.025	
28.870	-0.220	-0.004	
28.875	-0.247	-0.008	
28.880	0.285	-0.028	
28.885	-0.102	-0.023	
28.890	-0.351	-0.028	
28.895	0.209	-0.053	
28.900	0.270	-0.040	
28.905	-0.319	-0.007	
28.910	-0.073	-0.009	
28.915	0.392	-0.012	
28.920	-0.209	0.012	
28.925	-0.226	0.010	
28.930	0.407	-0.005	
28.935	-0.044	0.014	
