Vernier Format 2
ecg1.txt 10/19/2025 10:49:7
Run 1
Time	Potential	EKG	
T	P	E	
s	mV	mV	

0.000	0.181	0.008	
0.005	-0.093	0.023	
0.010	-0.199	0.017	
0.015	0.065	-0.009	
0.020	-0.029	-0.024	
0.025	-0.237	-0.038	
0.030	-0.006	-0.061	
0.035	0.256	-0.061	
0.040	-0.037	-0.028	
0.045	0.078	0.005	
0.050	0.429	0.046	
0.055	0.029	0.102	
0.060	-0.174	0.125	
0.065	0.050	0.101	
0.070	-0.049	0.065	
0.075	-0.252	0.021	
0.080	-0.052	-0.032	
0.085	0.065	-0.066	
0.090	-0.207	-0.076	
0.095	-0.145	-0.090	
0.100	0.105	-0.098	
0.105	-0.126	-0.087	
0.110	-0.213	-0.082	
0.115	0.044	-0.088	
0.120	0.013	-0.079	
0.125	-0.219	-0.068	
0.130	-0.031	-0.070	
0.135	0.151	-0.065	
0.140	-0.159	-0.045	
0.145	-0.127	-0.040	
0.150	0.201	-0.040	
0.155	-0.078	-0.024	
0.160	-0.182	-0.018	
0.165	0.117	-0.026	
0.170	0.059	-0.021	
0.175	-0.197	-0.012	
0.180	-0.005	-0.022	
0.185	0.192	-0.023	
0.190	-0.133	-0.008	
0.195	-0.072	-0.006	
0.200	0.263	-0.004	
0.205	-0.045	0.016	
0.210	-0.141	0.024	
0.215	0.220	0.019	
0.220	0.116	0.032	
0.225	-0.170	0.046	
0.230	0.030	0.035	
0.235	0.236	0.029	
0.240	-0.126	0.038	
0.245	-0.075	0.032	
0.250	0.246	0.021	
0.255	-0.042	0.029	
0.260	-0.168	0.028	
0.265	0.137	0.011	
0.270	0.096	0.010	
0.275	-0.161	0.015	
0.280	0.067	0.008	
0.285	0.282	0.014	
0.290	-0.089	0.040	
0.295	-0.034	0.049	
0.300	0.339	0.052	
0.305	0.017	0.075	
0.310	-0.127	0.083	
0.315	0.217	0.071	
0.320	0.114	0.072	
0.325	-0.168	0.071	
0.330	0.036	0.049	
0.335	0.259	0.037	
0.340	-0.142	0.043	
0.345	-0.116	0.032	
0.350	0.215	0.013	
0.355	-0.074	0.012	
0.360	-0.210	0.003	
0.365	0.075	-0.021	
0.370	0.012	-0.031	
0.375	-0.223	-0.036	
0.380	-0.045	-0.054	
0.385	0.128	-0.062	
0.390	-0.182	-0.052	
0.395	-0.138	-0.055	
0.400	0.146	-0.061	
0.405	-0.106	-0.050	
0.410	-0.219	-0.049	
0.415	0.143	-0.058	
0.420	0.178	-0.040	
0.425	-0.074	-0.004	
0.430	0.238	0.027	
0.435	0.398	0.074	
0.440	-0.095	0.127	
0.445	-0.130	0.133	
0.450	0.151	0.102	
0.455	-0.110	0.071	
0.460	-0.229	0.029	
0.465	0.050	-0.021	
0.470	0.013	-0.047	
0.475	-0.223	-0.058	
0.480	-0.009	-0.073	
0.485	0.203	-0.069	
0.490	-0.152	-0.043	
0.495	-0.122	-0.032	
0.500	0.217	-0.029	
0.505	-0.060	-0.011	
0.510	-0.194	-0.004	
0.515	0.137	-0.015	
0.520	0.110	-0.008	
0.525	-0.171	0.005	
0.530	0.061	0.003	
0.535	0.276	0.011	
0.540	-0.121	0.036	
0.545	-0.087	0.039	
0.550	0.258	0.032	
0.555	-0.037	0.040	
0.560	-0.164	0.038	
0.565	0.174	0.021	
0.570	0.160	0.025	
0.575	-0.139	0.038	
0.580	0.084	0.036	
0.585	0.293	0.043	
0.590	-0.093	0.066	
0.595	-0.043	0.067	
0.600	0.328	0.062	
0.605	0.015	0.078	
0.610	-0.144	0.081	
0.615	0.215	0.065	
0.620	0.174	0.066	
0.625	-0.133	0.074	
0.630	0.072	0.064	
0.635	0.302	0.061	
0.640	-0.084	0.076	
0.645	-0.066	0.072	
0.650	0.328	0.062	
0.655	0.029	0.074	
0.660	-0.127	0.079	
0.665	0.246	0.067	
0.670	0.189	0.075	
0.675	-0.138	0.087	
0.680	0.096	0.077	
0.685	0.345	0.077	
0.690	-0.061	0.096	
0.695	-0.026	0.097	
0.700	0.376	0.091	
0.705	0.056	0.108	
0.710	-0.121	0.113	
0.715	0.250	0.098	
0.720	0.181	0.098	
0.725	-0.152	0.101	
0.730	0.010	0.079	
0.735	0.218	0.058	
0.740	-0.153	0.050	
0.745	-0.142	0.026	
0.750	0.178	-0.002	
0.755	-0.080	-0.009	
0.760	-0.200	-0.020	
0.765	0.124	-0.038	
0.770	0.079	-0.034	
0.775	-0.199	-0.022	
0.780	-0.016	-0.027	
0.785	0.186	-0.027	
0.790	-0.170	-0.013	
0.795	-0.138	-0.017	
0.800	0.240	-0.026	
0.805	-0.006	-0.010	
0.810	-0.083	0.007	
0.815	0.348	0.022	
0.820	0.253	0.065	
0.825	-0.155	0.107	
0.830	-0.023	0.104	
0.835	0.133	0.080	
0.840	-0.190	0.056	
0.845	-0.200	0.013	
0.850	0.081	-0.034	
0.855	-0.110	-0.058	
0.860	-0.220	-0.075	
0.865	0.061	-0.093	
0.870	-0.019	-0.090	
0.875	-0.283	-0.083	
0.880	-0.132	-0.098	
0.885	-0.002	-0.112	
0.890	-0.254	-0.117	
0.895	-0.214	-0.131	
0.900	0.087	-0.141	
0.905	-0.127	-0.128	
0.910	-0.252	-0.117	
0.915	0.013	-0.119	
0.920	0.013	-0.107	
0.925	-0.229	-0.091	
0.930	-0.072	-0.090	
0.935	0.133	-0.084	
0.940	-0.159	-0.064	
0.945	-0.142	-0.057	
0.950	0.171	-0.056	
0.955	-0.086	-0.040	
0.960	-0.214	-0.035	
0.965	0.078	-0.046	
0.970	0.047	-0.043	
0.975	-0.196	-0.035	
0.980	-0.000	-0.041	
0.985	0.220	-0.035	
0.990	-0.127	-0.011	
0.995	-0.110	-0.004	
1.000	0.240	-0.005	
1.005	-0.009	0.012	
1.010	-0.156	0.021	
1.015	0.127	0.013	
1.020	0.082	0.015	
1.025	-0.177	0.018	
1.030	-0.008	0.003	
1.035	0.183	-0.005	
1.040	-0.147	0.002	
1.045	-0.126	-0.006	
1.050	0.191	-0.019	
1.055	-0.074	-0.013	
1.060	-0.211	-0.015	
1.065	0.082	-0.033	
1.070	0.090	-0.033	
1.075	-0.190	-0.024	
1.080	-0.031	-0.030	
1.085	0.211	-0.029	
1.090	-0.135	-0.012	
1.095	-0.130	-0.010	
1.100	0.156	-0.018	
1.105	-0.095	-0.015	
1.110	-0.217	-0.022	
1.115	0.056	-0.043	
1.120	0.030	-0.049	
1.125	-0.240	-0.049	
1.130	-0.086	-0.064	
1.135	0.104	-0.074	
1.140	-0.184	-0.068	
1.145	-0.181	-0.073	
1.150	0.094	-0.083	
1.155	-0.116	-0.077	
1.160	-0.249	-0.078	
1.165	0.017	-0.092	
1.170	0.012	-0.091	
1.175	-0.223	-0.082	
1.180	-0.031	-0.084	
1.185	0.259	-0.071	
1.190	-0.058	-0.031	
1.195	-0.029	-0.001	
1.200	0.336	0.024	
1.205	-0.002	0.062	
1.210	-0.211	0.074	
1.215	0.013	0.048	
1.220	-0.003	0.017	
1.225	-0.249	-0.012	
1.230	-0.086	-0.051	
1.235	0.146	-0.074	
1.240	-0.158	-0.069	
1.245	-0.130	-0.068	
1.250	0.189	-0.065	
1.255	-0.072	-0.044	
1.260	-0.240	-0.034	
1.265	0.013	-0.048	
1.270	0.001	-0.056	
1.275	-0.257	-0.060	
1.280	-0.089	-0.079	
1.285	0.124	-0.088	
1.290	-0.167	-0.077	
1.295	-0.153	-0.074	
1.300	0.165	-0.073	
1.305	-0.064	-0.054	
1.310	-0.205	-0.042	
1.315	0.093	-0.046	
1.320	0.114	-0.036	
1.325	-0.177	-0.017	
1.330	-0.002	-0.016	
1.335	0.229	-0.010	
1.340	-0.106	0.011	
1.345	-0.103	0.015	
1.350	0.261	0.012	
1.355	0.023	0.029	
1.360	-0.156	0.039	
1.365	0.159	0.030	
1.370	0.165	0.036	
1.375	-0.148	0.047	
1.380	0.010	0.039	
1.385	0.252	0.033	
1.390	-0.107	0.043	
1.395	-0.104	0.037	
1.400	0.261	0.025	
1.405	0.006	0.033	
1.410	-0.171	0.036	
1.415	0.087	0.020	
1.420	0.104	0.013	
1.425	-0.190	0.012	
1.430	-0.016	-0.004	
1.435	0.236	-0.011	
1.440	-0.110	0.004	
1.445	-0.112	0.006	
1.450	0.235	0.002	
1.455	0.003	0.016	
1.460	-0.165	0.023	
1.465	0.143	0.014	
1.470	0.151	0.020	
1.475	-0.165	0.032	
1.480	-0.046	0.021	
1.485	0.203	0.010	
1.490	-0.130	0.013	
1.495	-0.145	0.003	
1.500	0.146	-0.016	
1.505	-0.080	-0.018	
1.510	-0.232	-0.028	
1.515	0.020	-0.052	
1.520	0.056	-0.060	
1.525	-0.226	-0.057	
1.530	-0.100	-0.068	
1.535	0.101	-0.076	
1.540	-0.171	-0.069	
1.545	-0.184	-0.073	
1.550	0.101	-0.081	
1.555	-0.081	-0.073	
1.560	-0.223	-0.069	
1.565	0.061	-0.076	
1.570	0.159	-0.062	
1.575	-0.100	-0.032	
1.580	0.181	-0.004	
1.585	0.380	0.040	
1.590	-0.089	0.094	
1.595	-0.150	0.105	
1.600	0.111	0.079	
1.605	-0.106	0.049	
1.610	-0.248	0.010	
1.615	0.003	-0.039	
1.620	0.035	-0.065	
1.625	-0.237	-0.074	
1.630	-0.087	-0.089	
1.635	0.137	-0.092	
1.640	-0.158	-0.076	
1.645	-0.145	-0.068	
1.650	0.186	-0.064	
1.655	-0.031	-0.041	
1.660	-0.184	-0.025	
1.665	0.101	-0.026	
1.670	0.104	-0.016	
1.675	-0.181	-0.003	
1.680	-0.017	-0.008	
1.685	0.250	-0.008	
1.690	-0.106	0.011	
1.695	-0.098	0.016	
1.700	0.263	0.013	
1.705	0.021	0.030	
1.710	-0.147	0.040	
1.715	0.172	0.033	
1.720	0.185	0.041	
1.725	-0.135	0.056	
1.730	0.075	0.053	
1.735	0.342	0.058	
1.740	-0.051	0.082	
1.745	-0.058	0.088	
1.750	0.340	0.082	
1.755	0.078	0.096	
1.760	-0.118	0.103	
1.765	0.226	0.091	
1.770	0.233	0.094	
1.775	-0.119	0.105	
1.780	0.059	0.093	
1.785	0.328	0.085	
1.790	-0.060	0.096	
1.795	-0.060	0.090	
1.800	0.322	0.078	
1.805	0.052	0.086	
1.810	-0.141	0.088	
1.815	0.177	0.070	
1.820	0.188	0.067	
1.825	-0.138	0.072	
1.830	0.072	0.060	
1.835	0.363	0.061	
1.840	-0.064	0.083	
1.845	-0.061	0.087	
1.850	0.354	0.081	
1.855	0.094	0.097	
1.860	-0.110	0.107	
1.865	0.264	0.098	
1.870	0.244	0.107	
1.875	-0.139	0.119	
1.880	0.021	0.103	
1.885	0.272	0.084	
1.890	-0.112	0.080	
1.895	-0.116	0.060	
1.900	0.266	0.036	
1.905	-0.003	0.036	
1.910	-0.176	0.033	
1.915	0.137	0.016	
1.920	0.143	0.015	
1.925	-0.174	0.024	
1.930	-0.011	0.014	
1.935	0.258	0.009	
1.940	-0.121	0.023	
1.945	-0.133	0.020	
1.950	0.255	0.009	
1.955	0.052	0.021	
1.960	-0.103	0.035	
1.965	0.368	0.046	
1.970	0.455	0.093	
1.975	-0.032	0.156	
1.980	0.108	0.181	
1.985	0.255	0.181	
1.990	-0.161	0.168	
1.995	-0.187	0.119	
2.000	0.119	0.054	
2.005	-0.101	0.010	
2.010	-0.255	-0.030	
2.015	0.015	-0.071	
2.020	0.053	-0.086	
2.025	-0.232	-0.083	
2.030	-0.077	-0.088	
2.035	0.174	-0.085	
2.040	-0.161	-0.062	
2.045	-0.161	-0.054	
2.050	0.172	-0.054	
2.055	-0.046	-0.038	
2.060	-0.208	-0.029	
2.065	0.101	-0.036	
2.070	0.127	-0.027	
2.075	-0.207	-0.011	
2.080	-0.040	-0.016	
2.085	0.233	-0.018	
2.090	-0.109	-0.001	
2.095	-0.110	0.003	
2.100	0.284	0.003	
2.105	0.044	0.025	
2.110	-0.145	0.042	
2.115	0.178	0.039	
2.120	0.186	0.049	
2.125	-0.133	0.064	
2.130	0.046	0.058	
2.135	0.354	0.059	
2.140	-0.071	0.080	
2.145	-0.086	0.081	
2.150	0.307	0.070	
2.155	0.052	0.078	
2.160	-0.162	0.079	
2.165	0.156	0.060	
2.170	0.185	0.055	
2.175	-0.142	0.060	
2.180	0.042	0.048	
2.185	0.318	0.046	
2.190	-0.075	0.064	
2.195	-0.087	0.065	
2.200	0.272	0.054	
2.205	0.012	0.061	
2.210	-0.145	0.059	
2.215	0.165	0.043	
2.220	0.183	0.043	
2.225	-0.142	0.054	
2.230	0.041	0.046	
2.235	0.327	0.046	
2.240	-0.068	0.067	
2.245	-0.080	0.069	
2.250	0.318	0.062	
2.255	0.073	0.076	
2.260	-0.136	0.084	
2.265	0.181	0.072	
2.270	0.174	0.071	
2.275	-0.184	0.073	
2.280	-0.049	0.050	
2.285	0.186	0.025	
2.290	-0.138	0.016	
2.295	-0.133	-0.001	
2.300	0.188	-0.019	
2.305	-0.043	-0.016	
2.310	-0.211	-0.016	
2.315	0.075	-0.031	
2.320	0.085	-0.032	
2.325	-0.200	-0.024	
2.330	-0.055	-0.033	
2.335	0.172	-0.038	
2.340	-0.142	-0.026	
2.345	-0.103	-0.026	
2.350	0.368	-0.020	
2.355	0.240	0.027	
2.360	0.018	0.085	
2.365	0.376	0.128	
2.370	0.255	0.173	
2.375	-0.162	0.196	
2.380	-0.061	0.165	
2.385	0.145	0.113	
2.390	-0.153	0.070	
2.395	-0.158	0.021	
2.400	0.174	-0.020	
2.405	-0.051	-0.030	
2.410	-0.205	-0.036	
2.415	0.085	-0.049	
2.420	0.160	-0.041	
2.425	-0.127	-0.017	
2.430	0.018	-0.005	
2.435	0.301	0.011	
2.440	-0.077	0.042	
2.445	-0.089	0.052	
2.450	0.282	0.049	
2.455	0.032	0.062	
2.460	-0.176	0.064	
2.465	0.151	0.046	
2.470	0.192	0.043	
2.475	-0.144	0.052	
2.480	0.018	0.043	
2.485	0.334	0.041	
2.490	-0.042	0.062	
2.495	-0.075	0.069	
2.500	0.304	0.065	
2.505	0.078	0.079	
2.510	-0.126	0.087	
2.515	0.192	0.076	
2.520	0.240	0.079	
2.525	-0.129	0.091	
2.530	0.041	0.081	
2.535	0.348	0.075	
2.540	-0.043	0.091	
2.545	-0.081	0.090	
2.550	0.276	0.076	
2.555	0.038	0.079	
2.560	-0.153	0.075	
2.565	0.163	0.054	
2.570	0.203	0.051	
2.575	-0.155	0.060	
2.580	-0.020	0.047	
2.585	0.249	0.034	
2.590	-0.090	0.040	
2.595	-0.115	0.033	
2.600	0.240	0.020	
2.605	0.030	0.028	
2.610	-0.150	0.034	
2.615	0.206	0.027	
2.620	0.278	0.044	
2.625	-0.113	0.074	
2.630	0.042	0.079	
2.635	0.339	0.082	
2.640	-0.046	0.099	
2.645	-0.089	0.096	
2.650	0.259	0.079	
2.655	0.033	0.077	
2.660	-0.168	0.069	
2.665	0.108	0.044	
2.670	0.142	0.032	
2.675	-0.185	0.030	
2.680	-0.057	0.010	
2.685	0.203	-0.006	
2.690	-0.127	-0.003	
2.695	-0.155	-0.010	
2.700	0.154	-0.025	
2.705	-0.046	-0.022	
2.710	-0.214	-0.024	
2.715	0.039	-0.041	
2.720	0.079	-0.044	
2.725	-0.216	-0.038	
2.730	-0.057	-0.047	
2.735	0.314	-0.044	
2.740	0.039	-0.006	
2.745	0.056	0.035	
2.750	0.470	0.077	
2.755	0.152	0.137	
2.760	-0.164	0.169	
2.765	0.067	0.149	
2.770	0.088	0.114	
2.775	-0.193	0.078	
2.780	-0.060	0.030	
2.785	0.209	-0.004	
2.790	-0.112	-0.009	
2.795	-0.130	-0.016	
2.800	0.215	-0.024	
2.805	-0.017	-0.010	
2.810	-0.190	-0.002	
2.815	0.111	-0.011	
2.820	0.160	-0.004	
2.825	-0.171	0.012	
2.830	-0.068	0.006	
2.835	0.226	-0.002	
2.840	-0.103	0.008	
2.845	-0.113	0.007	
2.850	0.241	0.001	
2.855	0.055	0.017	
2.860	-0.164	0.031	
2.865	0.142	0.026	
2.870	0.223	0.034	
2.875	-0.127	0.053	
2.880	0.023	0.053	
2.885	0.350	0.055	
2.890	-0.003	0.079	
2.895	-0.081	0.088	
2.900	0.328	0.084	
2.905	0.127	0.099	
2.910	-0.097	0.110	
2.915	0.272	0.105	
2.920	0.328	0.119	
2.925	-0.080	0.143	
2.930	0.062	0.139	
2.935	0.336	0.129	
2.940	-0.046	0.132	
2.945	-0.087	0.116	
2.950	0.285	0.090	
2.955	0.094	0.087	
2.960	-0.136	0.085	
2.965	0.149	0.067	
2.970	0.232	0.064	
2.975	-0.129	0.073	
2.980	0.013	0.064	
2.985	0.330	0.058	
2.990	-0.038	0.073	
2.995	-0.083	0.075	
3.000	0.316	0.068	
3.005	0.127	0.083	
3.010	-0.109	0.096	
3.015	0.215	0.090	
3.020	0.276	0.099	
3.025	-0.115	0.115	
3.030	0.041	0.105	
3.035	0.319	0.095	
3.040	-0.081	0.099	
3.045	-0.127	0.085	
3.050	0.198	0.056	
3.055	-0.011	0.043	
3.060	-0.203	0.028	
3.065	0.056	-0.002	
3.070	0.136	-0.014	
3.075	-0.179	-0.010	
3.080	-0.052	-0.019	
3.085	0.226	-0.023	
3.090	-0.092	-0.006	
3.095	-0.159	-0.002	
3.100	0.140	-0.012	
3.105	-0.025	-0.011	
3.110	-0.181	-0.012	
3.115	0.160	-0.021	
3.120	0.313	-0.000	
3.125	-0.025	0.045	
3.130	0.208	0.080	
3.135	0.452	0.122	
3.140	-0.025	0.170	
3.145	-0.116	0.176	
3.150	0.175	0.142	
3.155	-0.023	0.109	
3.160	-0.205	0.069	
3.165	0.058	0.020	
3.170	0.168	-0.005	
3.175	-0.148	-0.005	
3.180	0.001	-0.010	
3.185	0.340	-0.001	
3.190	-0.037	0.033	
3.195	-0.100	0.051	
3.200	0.266	0.052	
3.205	0.120	0.068	
3.210	-0.147	0.080	
3.215	0.174	0.072	
3.220	0.272	0.076	
3.225	-0.113	0.092	
3.230	0.020	0.086	
3.235	0.322	0.078	
3.240	-0.040	0.089	
3.245	-0.089	0.085	
3.250	0.269	0.070	
3.255	0.075	0.073	
3.260	-0.142	0.074	
3.265	0.162	0.059	
3.270	0.255	0.061	
3.275	-0.101	0.076	
3.280	0.046	0.075	
3.285	0.356	0.076	
3.290	-0.019	0.097	
3.295	-0.069	0.101	
3.300	0.328	0.092	
3.305	0.134	0.104	
3.310	-0.135	0.112	
3.315	0.142	0.096	
3.320	0.235	0.088	
3.325	-0.119	0.090	
3.330	0.006	0.075	
3.335	0.311	0.063	
3.340	-0.058	0.072	
3.345	-0.115	0.067	
3.350	0.282	0.051	
3.355	0.111	0.060	
3.360	-0.116	0.072	
3.365	0.203	0.068	
3.370	0.296	0.080	
3.375	-0.080	0.105	
3.380	0.085	0.108	
3.385	0.417	0.113	
3.390	0.015	0.137	
3.395	-0.043	0.143	
3.400	0.363	0.133	
3.405	0.185	0.143	
3.410	-0.081	0.152	
3.415	0.214	0.139	
3.420	0.298	0.137	
3.425	-0.095	0.143	
3.430	0.042	0.127	
3.435	0.374	0.112	
3.440	-0.025	0.120	
3.445	-0.101	0.112	
3.450	0.282	0.090	
3.455	0.072	0.087	
3.460	-0.162	0.082	
3.465	0.094	0.057	
3.470	0.185	0.044	
3.475	-0.168	0.043	
3.480	-0.064	0.025	
3.485	0.215	0.007	
3.490	-0.074	0.011	
3.495	-0.081	0.010	
3.500	0.376	0.014	
3.505	0.281	0.057	
3.510	-0.031	0.110	
3.515	0.253	0.137	
3.520	0.243	0.159	
3.525	-0.179	0.166	
3.530	-0.106	0.128	
3.535	0.145	0.075	
3.540	-0.135	0.037	
3.545	-0.184	-0.003	
3.550	0.107	-0.040	
3.555	-0.025	-0.051	
3.560	-0.214	-0.054	
3.565	0.042	-0.064	
3.570	0.154	-0.057	
3.575	-0.167	-0.034	
3.580	-0.045	-0.027	
3.585	0.264	-0.018	
3.590	-0.052	0.010	
3.595	-0.126	0.023	
3.600	0.214	0.021	
3.605	0.023	0.031	
3.610	-0.171	0.035	
3.615	0.130	0.021	
3.620	0.236	0.025	
3.625	-0.127	0.045	
3.630	-0.009	0.045	
3.635	0.299	0.044	
3.640	-0.058	0.059	
3.645	-0.110	0.060	
3.650	0.258	0.048	
3.655	0.065	0.055	
3.660	-0.164	0.059	
3.665	0.094	0.042	
3.670	0.221	0.037	
3.675	-0.144	0.046	
3.680	-0.052	0.037	
3.685	0.233	0.025	
3.690	-0.083	0.029	
3.695	-0.141	0.023	
3.700	0.181	0.007	
3.705	-0.000	0.008	
3.710	-0.207	0.006	
3.715	0.024	-0.014	
3.720	0.114	-0.023	
3.725	-0.202	-0.021	
3.730	-0.100	-0.034	
3.735	0.192	-0.044	
3.740	-0.118	-0.033	
3.745	-0.161	-0.031	
3.750	0.149	-0.038	
3.755	-0.003	-0.028	
3.760	-0.199	-0.020	
3.765	0.082	-0.028	
3.770	0.157	-0.020	
3.775	-0.159	-0.002	
3.780	-0.051	-0.003	
3.785	0.220	-0.004	
3.790	-0.115	0.008	
3.795	-0.187	0.004	
3.800	0.068	-0.018	
3.805	-0.063	-0.031	
3.810	-0.260	-0.046	
3.815	-0.046	-0.074	
3.820	0.039	-0.089	
3.825	-0.237	-0.089	
3.830	-0.153	-0.100	
3.835	0.052	-0.109	
3.840	-0.196	-0.105	
3.845	-0.246	-0.111	
3.850	0.007	-0.125	
3.855	-0.107	-0.124	
3.860	-0.306	-0.124	
3.865	-0.087	-0.139	
3.870	0.013	-0.142	
3.875	-0.200	-0.129	
3.880	-0.046	-0.119	
3.885	0.340	-0.090	
3.890	-0.038	-0.032	
3.895	-0.145	0.008	
3.900	0.090	0.016	
3.905	-0.095	0.013	
3.910	-0.300	-0.009	
3.915	-0.090	-0.054	
3.920	-0.009	-0.089	
3.925	-0.254	-0.107	
3.930	-0.159	-0.127	
3.935	0.042	-0.138	
3.940	-0.177	-0.129	
3.945	-0.232	-0.126	
3.950	0.030	-0.130	
3.955	-0.061	-0.118	
3.960	-0.242	-0.106	
3.965	-0.034	-0.107	
3.970	0.044	-0.100	
3.975	-0.226	-0.086	
3.980	-0.129	-0.088	
3.985	0.131	-0.089	
3.990	-0.144	-0.074	
3.995	-0.211	-0.069	
4.000	0.091	-0.076	
4.005	-0.037	-0.069	
4.010	-0.237	-0.062	
4.015	-0.002	-0.071	
4.020	0.134	-0.068	
4.025	-0.181	-0.049	
4.030	-0.084	-0.046	
4.035	0.218	-0.041	
4.040	-0.106	-0.020	
4.045	-0.181	-0.014	
4.050	0.116	-0.025	
4.055	-0.022	-0.024	
4.060	-0.217	-0.026	
4.065	0.020	-0.042	
4.070	0.146	-0.044	
4.075	-0.168	-0.030	
4.080	-0.078	-0.030	
4.085	0.209	-0.030	
4.090	-0.098	-0.013	
4.095	-0.164	-0.009	
4.100	0.177	-0.017	
4.105	0.021	-0.008	
4.110	-0.193	-0.001	
4.115	0.052	-0.012	
4.120	0.160	-0.012	
4.125	-0.148	0.001	
4.130	-0.037	-0.001	
4.135	0.278	0.001	
4.140	-0.069	0.022	
4.145	-0.133	0.029	
4.150	0.212	0.021	
4.155	0.042	0.029	
4.160	-0.187	0.032	
4.165	0.032	0.014	
4.170	0.116	0.003	
4.175	-0.188	-0.000	
4.180	-0.110	-0.019	
4.185	0.110	-0.038	
4.190	-0.156	-0.043	
4.195	-0.229	-0.057	
4.200	0.001	-0.082	
4.205	-0.100	-0.094	
4.210	-0.292	-0.105	
4.215	-0.098	-0.127	
4.220	-0.029	-0.139	
4.225	-0.269	-0.138	
4.230	-0.177	-0.147	
4.235	0.052	-0.150	
4.240	-0.202	-0.137	
4.245	-0.272	-0.134	
4.250	-0.014	-0.143	
4.255	-0.075	-0.138	
4.260	-0.219	-0.128	
4.265	0.145	-0.116	
4.270	0.357	-0.069	
4.275	-0.090	0.002	
4.280	-0.075	0.041	
4.285	0.142	0.049	
4.290	-0.197	0.044	
4.295	-0.277	0.009	
4.300	-0.025	-0.046	
4.305	-0.112	-0.084	
4.310	-0.292	-0.113	
4.315	-0.081	-0.142	
4.320	0.020	-0.150	
4.325	-0.245	-0.139	
4.330	-0.155	-0.137	
4.335	0.107	-0.132	
4.340	-0.153	-0.109	
4.345	-0.222	-0.097	
4.350	0.070	-0.098	
4.355	-0.023	-0.085	
4.360	-0.237	-0.073	
4.365	-0.011	-0.077	
4.370	0.084	-0.073	
4.375	-0.200	-0.059	
4.380	-0.109	-0.061	
4.385	0.172	-0.062	
4.390	-0.112	-0.046	
4.395	-0.177	-0.040	
4.400	0.148	-0.044	
4.405	0.012	-0.032	
4.410	-0.202	-0.022	
4.415	0.046	-0.028	
4.420	0.206	-0.022	
4.425	-0.148	-0.001	
4.430	-0.078	0.002	
4.435	0.266	0.001	
4.440	-0.055	0.019	
4.445	-0.144	0.025	
4.450	0.212	0.017	
4.455	0.068	0.026	
4.460	-0.176	0.034	
4.465	0.032	0.020	
4.470	0.152	0.011	
4.475	-0.165	0.013	
4.480	-0.055	0.000	
4.485	0.211	-0.009	
4.490	-0.080	0.002	
4.495	-0.155	0.002	
4.500	0.181	-0.008	
4.505	0.076	0.002	
4.510	-0.164	0.014	
4.515	0.075	0.009	
4.520	0.214	0.014	
4.525	-0.138	0.031	
4.530	-0.034	0.029	
4.535	0.221	0.024	
4.540	-0.084	0.031	
4.545	-0.158	0.025	
4.550	0.172	0.006	
4.555	0.018	0.006	
4.560	-0.217	0.004	
4.565	-0.029	-0.018	
4.570	0.082	-0.035	
4.575	-0.211	-0.040	
4.580	-0.135	-0.057	
4.585	0.133	-0.071	
4.590	-0.138	-0.065	
4.595	-0.220	-0.067	
4.600	0.107	-0.077	
4.605	-0.026	-0.070	
4.610	-0.245	-0.062	
4.615	-0.032	-0.072	
4.620	0.099	-0.073	
4.625	-0.208	-0.062	
4.630	-0.141	-0.067	
4.635	0.178	-0.071	
4.640	-0.038	-0.052	
4.645	-0.046	-0.030	
4.650	0.466	0.002	
4.655	0.288	0.071	
4.660	-0.103	0.135	
4.665	0.073	0.149	
4.670	0.125	0.136	
4.675	-0.214	0.110	
4.680	-0.136	0.056	
4.685	0.188	0.006	
4.690	-0.107	-0.014	
4.695	-0.185	-0.031	
4.700	0.149	-0.049	
4.705	0.021	-0.042	
4.710	-0.205	-0.032	
4.715	0.053	-0.036	
4.720	0.212	-0.027	
4.725	-0.139	-0.001	
4.730	-0.045	0.006	
4.735	0.301	0.012	
4.740	-0.035	0.037	
4.745	-0.104	0.048	
4.750	0.279	0.046	
4.755	0.124	0.064	
4.760	-0.138	0.078	
4.765	0.137	0.070	
4.770	0.259	0.072	
4.775	-0.126	0.084	
4.780	-0.043	0.073	
4.785	0.307	0.058	
4.790	-0.032	0.065	
4.795	-0.127	0.062	
4.800	0.252	0.047	
4.805	0.110	0.054	
4.810	-0.155	0.062	
4.815	0.124	0.051	
4.820	0.287	0.053	
4.825	-0.109	0.072	
4.830	-0.016	0.070	
4.835	0.331	0.065	
4.840	-0.035	0.079	
4.845	-0.127	0.077	
4.850	0.240	0.060	
4.855	0.099	0.061	
4.860	-0.182	0.062	
4.865	0.087	0.043	
4.870	0.255	0.037	
4.875	-0.129	0.049	
4.880	-0.029	0.044	
4.885	0.342	0.041	
4.890	-0.002	0.062	
4.895	-0.101	0.072	
4.900	0.319	0.069	
4.905	0.221	0.089	
4.910	-0.118	0.113	
4.915	0.168	0.111	
4.920	0.325	0.114	
4.925	-0.097	0.128	
4.930	-0.003	0.117	
4.935	0.348	0.102	
4.940	-0.063	0.104	
4.945	-0.167	0.089	
4.950	0.203	0.056	
4.955	0.053	0.043	
4.960	-0.193	0.034	
4.965	0.055	0.010	
4.970	0.208	0.003	
4.975	-0.161	0.013	
4.980	-0.078	0.006	
4.985	0.253	-0.001	
4.990	-0.057	0.013	
4.995	-0.159	0.016	
5.000	0.169	0.006	
5.005	0.029	0.009	
5.010	-0.197	0.010	
5.015	0.094	-0.004	
5.020	0.357	0.006	
5.025	0.021	0.048	
5.030	0.189	0.087	
5.035	0.518	0.133	
5.040	0.068	0.190	
5.045	-0.101	0.209	
5.050	0.203	0.183	
5.055	0.027	0.151	
5.060	-0.211	0.110	
5.065	0.023	0.052	
5.070	0.208	0.016	
5.075	-0.158	0.008	
5.080	-0.071	-0.005	
5.085	0.278	-0.012	
5.090	-0.054	0.007	
5.095	-0.148	0.016	
5.100	0.229	0.012	
5.105	0.124	0.027	
5.110	-0.138	0.046	
5.115	0.148	0.046	
5.120	0.292	0.059	
5.125	-0.109	0.083	
5.130	-0.026	0.081	
5.135	0.357	0.075	
5.140	0.013	0.090	
5.145	-0.093	0.094	
5.150	0.331	0.086	
5.155	0.229	0.103	
5.160	-0.100	0.124	
5.165	0.178	0.121	
5.170	0.325	0.124	
5.175	-0.071	0.138	
5.180	0.036	0.129	
5.185	0.424	0.121	
5.190	0.055	0.138	
5.195	-0.081	0.142	
5.200	0.311	0.127	
5.205	0.212	0.131	
5.210	-0.104	0.138	
5.215	0.194	0.125	
5.220	0.385	0.126	
5.225	-0.052	0.146	
5.230	0.030	0.143	
5.235	0.391	0.133	
5.240	0.013	0.142	
5.245	-0.110	0.134	
5.250	0.278	0.109	
5.255	0.156	0.104	
5.260	-0.129	0.104	
5.265	0.122	0.085	
5.270	0.319	0.081	
5.275	-0.078	0.095	
5.280	0.015	0.093	
5.285	0.409	0.091	
5.290	0.049	0.114	
5.295	-0.087	0.124	
5.300	0.311	0.114	
5.305	0.154	0.120	
5.310	-0.133	0.123	
5.315	0.088	0.101	
5.320	0.238	0.084	
5.325	-0.132	0.081	
5.330	-0.071	0.059	
5.335	0.256	0.037	
5.340	-0.069	0.037	
5.345	-0.167	0.027	
5.350	0.162	0.007	
5.355	0.085	0.006	
5.360	-0.190	0.012	
5.365	0.044	0.001	
5.370	0.215	0.000	
5.375	-0.162	0.014	
5.380	-0.074	0.010	
5.385	0.284	0.005	
5.390	0.010	0.025	
5.395	-0.037	0.042	
5.400	0.479	0.062	
5.405	0.432	0.123	
5.410	-0.026	0.191	
5.415	0.178	0.215	
5.420	0.325	0.217	
5.425	-0.110	0.211	
5.430	-0.064	0.171	
5.435	0.259	0.121	
5.440	-0.051	0.093	
5.445	-0.141	0.062	
5.450	0.250	0.032	
5.455	0.148	0.035	
5.460	-0.142	0.048	
5.465	0.108	0.045	
5.470	0.292	0.052	
5.475	-0.115	0.072	
5.480	-0.042	0.070	
5.485	0.351	0.063	
5.490	0.017	0.079	
5.495	-0.112	0.085	
5.500	0.259	0.075	
5.505	0.169	0.082	
5.510	-0.138	0.092	
5.515	0.130	0.081	
5.520	0.308	0.081	
5.525	-0.078	0.096	
5.530	-0.025	0.092	
5.535	0.339	0.083	
5.540	0.009	0.093	
5.545	-0.106	0.093	
5.550	0.279	0.079	
5.555	0.159	0.086	
5.560	-0.147	0.094	
5.565	0.105	0.079	
5.570	0.302	0.074	
5.575	-0.098	0.086	
5.580	-0.054	0.079	
5.585	0.299	0.065	
5.590	-0.008	0.071	
5.595	-0.133	0.068	
5.600	0.200	0.050	
5.605	0.093	0.049	
5.610	-0.170	0.049	
5.615	0.047	0.031	
5.620	0.238	0.024	
5.625	-0.130	0.034	
5.630	-0.092	0.028	
5.635	0.238	0.016	
5.640	-0.046	0.023	
5.645	-0.144	0.022	
5.650	0.178	0.010	
5.655	0.096	0.017	
5.660	-0.171	0.026	
5.665	0.082	0.018	
5.670	0.287	0.024	
5.675	-0.109	0.048	
5.680	-0.068	0.051	
5.685	0.241	0.043	
5.690	-0.060	0.047	
5.695	-0.179	0.038	
5.700	0.114	0.013	
5.705	-0.003	-0.000	
5.710	-0.242	-0.013	
5.715	-0.048	-0.041	
5.720	0.090	-0.059	
5.725	-0.202	-0.060	
5.730	-0.152	-0.071	
5.735	0.152	-0.079	
5.740	-0.103	-0.067	
5.745	-0.217	-0.061	
5.750	0.084	-0.067	
5.755	-0.023	-0.062	
5.760	-0.257	-0.057	
5.765	-0.051	-0.072	
5.770	0.197	-0.073	
5.775	-0.095	-0.049	
5.780	0.039	-0.026	
5.785	0.461	0.011	
5.790	-0.006	0.071	
5.795	-0.187	0.099	
5.800	0.064	0.081	
5.805	-0.026	0.053	
5.810	-0.271	0.017	
5.815	-0.086	-0.034	
5.820	0.084	-0.069	
5.825	-0.200	-0.079	
5.830	-0.147	-0.091	
5.835	0.156	-0.096	
5.840	-0.098	-0.077	
5.845	-0.207	-0.065	
5.850	0.090	-0.067	
5.855	0.044	-0.054	
5.860	-0.211	-0.040	
5.865	-0.026	-0.044	
5.870	0.160	-0.043	
5.875	-0.162	-0.028	
5.880	-0.119	-0.029	
5.885	0.191	-0.034	
5.890	-0.075	-0.021	
5.895	-0.181	-0.018	
5.900	0.140	-0.026	
5.905	0.072	-0.018	
5.910	-0.196	-0.006	
5.915	0.021	-0.013	
5.920	0.240	-0.010	
5.925	-0.118	0.011	
5.930	-0.084	0.015	
5.935	0.235	0.012	
5.940	-0.048	0.024	
5.945	-0.156	0.025	
5.950	0.192	0.013	
5.955	0.093	0.019	
5.960	-0.177	0.028	
5.965	0.029	0.017	
5.970	0.226	0.013	
5.975	-0.133	0.025	
5.980	-0.092	0.020	
5.985	0.252	0.011	
5.990	-0.058	0.021	
5.995	-0.185	0.019	
6.000	0.137	0.002	
6.005	0.075	0.000	
6.010	-0.185	0.004	
6.015	0.029	-0.007	
6.020	0.223	-0.007	
6.025	-0.127	0.011	
6.030	-0.072	0.012	
6.035	0.281	0.011	
6.040	-0.037	0.030	
6.045	-0.152	0.036	
6.050	0.177	0.025	
6.055	0.076	0.027	
6.060	-0.190	0.030	
6.065	0.004	0.012	
6.070	0.165	0.000	
6.075	-0.176	0.002	
6.080	-0.132	-0.013	
6.085	0.165	-0.030	
6.090	-0.095	-0.028	
6.095	-0.240	-0.034	
6.100	-0.006	-0.058	
6.105	-0.035	-0.072	
6.110	-0.257	-0.081	
6.115	-0.074	-0.099	
6.120	0.067	-0.106	
6.125	-0.214	-0.096	
6.130	-0.168	-0.098	
6.135	0.110	-0.102	
6.140	-0.135	-0.088	
6.145	-0.236	-0.084	
6.150	0.111	-0.089	
6.155	0.151	-0.069	
6.160	-0.106	-0.032	
6.165	0.192	-0.002	
6.170	0.360	0.043	
6.175	-0.135	0.093	
6.180	-0.147	0.098	
6.185	0.099	0.067	
6.190	-0.136	0.035	
6.195	-0.245	-0.006	
6.200	0.024	-0.053	
6.205	-0.013	-0.076	
6.210	-0.243	-0.084	
6.215	-0.054	-0.099	
6.220	0.145	-0.097	
6.225	-0.161	-0.075	
6.230	-0.126	-0.064	
6.235	0.212	-0.056	
6.240	-0.049	-0.030	
6.245	-0.171	-0.015	
6.250	0.154	-0.015	
6.255	0.052	-0.004	
6.260	-0.225	0.004	
6.265	-0.037	-0.013	
6.270	0.201	-0.024	
6.275	-0.148	-0.014	
6.280	-0.122	-0.017	
6.285	0.220	-0.023	
6.290	-0.040	-0.009	
6.295	-0.164	-0.002	
6.300	0.140	-0.008	
6.305	0.084	-0.001	
6.310	-0.181	0.009	
6.315	0.026	0.001	
6.320	0.201	-0.000	
6.325	-0.141	0.013	
6.330	-0.106	0.008	
6.335	0.236	-0.001	
6.340	-0.097	0.007	
6.345	-0.232	0.001	
6.350	0.041	-0.026	
6.355	-0.019	-0.042	
6.360	-0.249	-0.054	
6.365	-0.072	-0.077	
6.370	0.116	-0.087	
6.375	-0.197	-0.077	
6.380	-0.164	-0.079	
6.385	0.142	-0.083	
6.390	-0.097	-0.068	
6.395	-0.220	-0.061	
6.400	0.084	-0.067	
6.405	0.068	-0.057	
6.410	-0.207	-0.041	
6.415	-0.020	-0.042	
6.420	0.218	-0.036	
6.425	-0.130	-0.014	
6.430	-0.106	-0.007	
6.435	0.240	-0.007	
6.440	-0.017	0.011	
6.445	-0.152	0.020	
6.450	0.177	0.014	
6.455	0.146	0.025	
6.460	-0.162	0.040	
6.465	-0.002	0.031	
6.470	0.218	0.024	
6.475	-0.152	0.029	
6.480	-0.133	0.016	
6.485	0.203	-0.003	
6.490	-0.057	-0.002	
6.495	-0.184	-0.006	
6.500	0.125	-0.020	
6.505	0.101	-0.016	
6.510	-0.202	-0.005	
6.515	-0.006	-0.013	
6.520	0.249	-0.013	
6.525	-0.136	0.006	
6.530	-0.118	0.007	
6.535	0.253	0.001	
6.540	-0.000	0.016	
6.545	-0.095	0.028	
6.550	0.431	0.039	
6.555	0.443	0.094	
6.560	-0.026	0.162	
6.565	0.159	0.192	
6.570	0.296	0.198	
6.575	-0.130	0.193	
6.580	-0.138	0.150	
6.585	0.194	0.092	
6.590	-0.048	0.055	
6.595	-0.185	0.023	
6.600	0.142	-0.010	
6.605	0.137	-0.013	
6.610	-0.171	-0.001	
6.615	-0.002	-0.005	
6.620	0.258	-0.002	
6.625	-0.110	0.019	
6.630	-0.080	0.023	
6.635	0.288	0.022	
6.640	-0.005	0.040	
6.645	-0.153	0.047	
6.650	0.191	0.037	
6.655	0.146	0.042	
6.660	-0.155	0.052	
6.665	0.036	0.041	
6.670	0.281	0.038	
6.675	-0.090	0.052	
6.680	-0.040	0.053	
6.685	0.356	0.052	
6.690	0.062	0.076	
6.695	-0.113	0.090	
6.700	0.258	0.085	
6.705	0.236	0.096	
6.710	-0.122	0.112	
6.715	0.108	0.104	
6.720	0.369	0.102	
6.725	-0.052	0.119	
6.730	-0.038	0.116	
6.735	0.363	0.104	
6.740	0.055	0.113	
6.745	-0.130	0.112	
6.750	0.232	0.093	
6.755	0.188	0.090	
6.760	-0.142	0.093	
6.765	0.093	0.078	
6.770	0.333	0.073	
6.775	-0.072	0.089	
6.780	-0.046	0.087	
6.785	0.350	0.078	
6.790	0.084	0.094	
6.795	-0.113	0.103	
6.800	0.236	0.092	
6.805	0.241	0.098	
6.810	-0.109	0.111	
6.815	0.125	0.104	
6.820	0.400	0.106	
6.825	-0.035	0.128	
6.830	-0.025	0.130	
6.835	0.347	0.119	
6.840	0.038	0.124	
6.845	-0.142	0.117	
6.850	0.178	0.088	
6.855	0.149	0.075	
6.860	-0.179	0.068	
6.865	-0.014	0.042	
6.870	0.223	0.022	
6.875	-0.136	0.022	
6.880	-0.130	0.009	
6.885	0.240	-0.006	
6.890	-0.035	0.002	
6.895	-0.184	0.005	
6.900	0.116	-0.008	
6.905	0.099	-0.006	
6.910	-0.211	0.001	
6.915	-0.043	-0.013	
6.920	0.212	-0.021	
6.925	-0.095	-0.008	
6.930	0.003	0.001	
6.935	0.537	0.026	
6.940	0.223	0.093	
6.945	-0.078	0.151	
6.950	0.266	0.167	
6.955	0.166	0.172	
6.960	-0.208	0.161	
6.965	-0.063	0.112	
6.970	0.166	0.059	
6.975	-0.144	0.028	
6.980	-0.115	-0.003	
6.985	0.226	-0.025	
6.990	-0.045	-0.018	
6.995	-0.196	-0.013	
7.000	0.127	-0.023	
7.005	0.116	-0.016	
7.010	-0.225	-0.003	
7.015	-0.060	-0.014	
7.020	0.191	-0.024	
7.025	-0.148	-0.017	
7.030	-0.133	-0.021	
7.035	0.264	-0.026	
7.040	-0.054	-0.008	
7.045	-0.219	-0.001	
7.050	0.097	-0.015	
7.055	0.096	-0.016	
7.060	-0.188	-0.009	
7.065	0.003	-0.016	
7.070	0.266	-0.013	
7.075	-0.110	0.010	
7.080	-0.086	0.018	
7.085	0.313	0.020	
7.090	0.032	0.044	
7.095	-0.138	0.058	
7.100	0.195	0.052	
7.105	0.181	0.060	
7.110	-0.161	0.071	
7.115	0.042	0.059	
7.120	0.313	0.053	
7.125	-0.087	0.067	
7.130	-0.086	0.064	
7.135	0.311	0.053	
7.140	0.035	0.064	
7.145	-0.141	0.069	
7.150	0.215	0.057	
7.155	0.218	0.064	
7.160	-0.142	0.079	
7.165	0.067	0.072	
7.170	0.339	0.071	
7.175	-0.072	0.088	
7.180	-0.048	0.087	
7.185	0.327	0.078	
7.190	0.059	0.090	
7.195	-0.112	0.094	
7.200	0.250	0.083	
7.205	0.223	0.091	
7.210	-0.147	0.103	
7.215	0.061	0.089	
7.220	0.330	0.080	
7.225	-0.090	0.090	
7.230	-0.104	0.080	
7.235	0.284	0.060	
7.240	-0.005	0.060	
7.245	-0.188	0.053	
7.250	0.099	0.027	
7.255	0.130	0.015	
7.260	-0.196	0.014	
7.265	-0.014	-0.002	
7.270	0.238	-0.008	
7.275	-0.127	0.005	
7.280	-0.124	0.005	
7.285	0.224	-0.004	
7.290	-0.048	0.006	
7.295	-0.228	0.005	
7.300	0.050	-0.017	
7.305	0.110	-0.026	
7.310	-0.171	-0.021	
7.315	0.050	-0.023	
7.320	0.402	-0.005	
7.325	-0.054	0.042	
7.330	-0.101	0.066	
7.335	0.185	0.063	
7.340	-0.069	0.059	
7.345	-0.237	0.037	
7.350	0.039	-0.004	
7.355	0.084	-0.027	
7.360	-0.222	-0.034	
7.365	-0.061	-0.050	
7.370	0.220	-0.055	
7.375	-0.129	-0.036	
7.380	-0.139	-0.028	
7.385	0.204	-0.028	
7.390	-0.035	-0.012	
7.395	-0.182	-0.004	
7.400	0.165	-0.011	
7.405	0.166	0.003	
7.410	-0.171	0.024	
7.415	-0.006	0.021	
7.420	0.256	0.020	
7.425	-0.100	0.034	
7.430	-0.100	0.033	
7.435	0.285	0.025	
7.440	0.032	0.040	
7.445	-0.164	0.049	
7.450	0.181	0.039	
7.455	0.191	0.045	
7.460	-0.148	0.058	
7.465	0.035	0.051	
7.470	0.330	0.050	
7.475	-0.055	0.069	
7.480	-0.058	0.074	
7.485	0.333	0.070	
7.490	0.070	0.086	
7.495	-0.132	0.094	
7.500	0.253	0.083	
7.505	0.281	0.093	
7.510	-0.107	0.113	
7.515	0.101	0.110	
7.520	0.403	0.111	
7.525	-0.035	0.131	
7.530	-0.045	0.130	
7.535	0.372	0.117	
7.540	0.113	0.127	
7.545	-0.121	0.130	
7.550	0.236	0.112	
7.555	0.278	0.112	
7.560	-0.107	0.123	
7.565	0.091	0.113	
7.570	0.403	0.109	
7.575	-0.022	0.127	
7.580	-0.045	0.127	
7.585	0.371	0.116	
7.590	0.140	0.128	
7.595	-0.112	0.135	
7.600	0.223	0.120	
7.605	0.243	0.117	
7.610	-0.144	0.120	
7.615	0.007	0.098	
7.620	0.298	0.076	
7.625	-0.083	0.076	
7.630	-0.110	0.063	
7.635	0.230	0.041	
7.640	-0.003	0.039	
7.645	-0.196	0.032	
7.650	0.105	0.009	
7.655	0.151	0.004	
7.660	-0.188	0.011	
7.665	-0.054	-0.001	
7.670	0.232	-0.009	
7.675	-0.136	0.001	
7.680	-0.156	-0.003	
7.685	0.212	-0.016	
7.690	0.033	-0.005	
7.695	-0.109	0.009	
7.700	0.377	0.023	
7.705	0.441	0.076	
7.710	-0.054	0.144	
7.715	0.088	0.170	
7.720	0.285	0.170	
7.725	-0.124	0.164	
7.730	-0.164	0.124	
7.735	0.189	0.070	
7.740	-0.017	0.040	
7.745	-0.181	0.016	
7.750	0.087	-0.012	
7.755	0.122	-0.018	
7.760	-0.179	-0.011	
7.765	-0.014	-0.017	
7.770	0.275	-0.014	
7.775	-0.086	0.011	
7.780	-0.101	0.022	
7.785	0.305	0.023	
7.790	0.065	0.047	
7.795	-0.159	0.062	
7.800	0.166	0.054	
7.805	0.211	0.058	
7.810	-0.135	0.070	
7.815	0.026	0.062	
7.820	0.330	0.057	
7.825	-0.084	0.072	
7.830	-0.104	0.069	
7.835	0.308	0.055	
7.840	0.084	0.066	
7.845	-0.122	0.075	
7.850	0.209	0.068	
7.855	0.263	0.078	
7.860	-0.126	0.096	
7.865	0.036	0.090	
7.870	0.362	0.084	
7.875	-0.049	0.099	
7.880	-0.083	0.096	
7.885	0.336	0.083	
7.890	0.072	0.091	
7.895	-0.167	0.093	
7.900	0.130	0.071	
7.905	0.160	0.058	
7.910	-0.164	0.055	
7.915	-0.023	0.034	
7.920	0.269	0.020	
7.925	-0.097	0.029	
7.930	-0.122	0.026	
7.935	0.244	0.015	
7.940	0.009	0.024	
7.945	-0.179	0.028	
7.950	0.107	0.014	
7.955	0.171	0.013	
7.960	-0.176	0.023	
7.965	-0.028	0.014	
7.970	0.285	0.010	
7.975	-0.063	0.028	
7.980	-0.112	0.034	
7.985	0.255	0.029	
7.990	0.039	0.042	
7.995	-0.197	0.046	
8.000	0.067	0.027	
8.005	0.125	0.015	
8.010	-0.184	0.013	
8.015	-0.063	-0.005	
8.020	0.146	-0.020	
8.025	-0.152	-0.020	
8.030	-0.187	-0.032	
8.035	0.127	-0.051	
8.040	-0.045	-0.049	
8.045	-0.236	-0.049	
8.050	0.029	-0.062	
8.055	0.090	-0.061	
8.060	-0.226	-0.050	
8.065	-0.103	-0.057	
8.070	0.149	-0.063	
8.075	-0.121	-0.051	
8.080	-0.097	-0.044	
8.085	0.388	-0.029	
8.090	0.255	0.026	
8.095	-0.060	0.088	
8.100	0.218	0.118	
8.105	0.195	0.137	
8.110	-0.203	0.140	
8.115	-0.112	0.101	
8.120	0.133	0.049	
8.125	-0.158	0.015	
8.130	-0.182	-0.022	
8.135	0.148	-0.053	
8.140	-0.040	-0.055	
8.145	-0.223	-0.053	
8.150	0.053	-0.062	
8.155	0.146	-0.054	
8.160	-0.179	-0.032	
8.165	-0.068	-0.029	
8.170	0.208	-0.026	
8.175	-0.121	-0.010	
8.180	-0.152	-0.009	
8.185	0.172	-0.018	
8.190	-0.023	-0.011	
8.195	-0.202	-0.010	
8.200	0.084	-0.023	
8.205	0.154	-0.020	
8.210	-0.173	-0.004	
8.215	-0.032	-0.006	
8.220	0.287	-0.004	
8.225	-0.086	0.019	
8.230	-0.127	0.026	
8.235	0.243	0.020	
8.240	0.018	0.031	
8.245	-0.184	0.035	
8.250	0.087	0.018	
8.255	0.143	0.013	
8.260	-0.196	0.016	
8.265	-0.057	0.001	
8.270	0.264	-0.009	
8.275	-0.103	0.005	
8.280	-0.158	0.006	
8.285	0.171	-0.006	
8.290	-0.016	-0.003	
8.295	-0.210	-0.004	
8.300	0.049	-0.022	
8.305	0.093	-0.027	
8.310	-0.202	-0.023	
8.315	-0.090	-0.036	
8.320	0.157	-0.046	
8.325	-0.144	-0.038	
8.330	-0.199	-0.043	
8.335	0.105	-0.057	
8.340	-0.043	-0.055	
8.345	-0.239	-0.054	
8.350	-0.000	-0.068	
8.355	0.082	-0.069	
8.360	-0.202	-0.059	
8.365	-0.060	-0.060	
8.370	0.212	-0.055	
8.375	-0.138	-0.032	
8.380	-0.184	-0.026	
8.385	0.130	-0.036	
8.390	-0.042	-0.032	
8.395	-0.248	-0.034	
8.400	-0.035	-0.055	
8.405	0.059	-0.067	
8.410	-0.234	-0.068	
8.415	-0.110	-0.079	
8.420	0.152	-0.084	
8.425	-0.158	-0.070	
8.430	-0.199	-0.066	
8.435	0.124	-0.072	
8.440	-0.040	-0.061	
8.445	-0.240	-0.054	
8.450	-0.017	-0.065	
8.455	0.062	-0.068	
8.460	-0.255	-0.064	
8.465	-0.132	-0.077	
8.470	0.122	-0.087	
8.475	-0.135	-0.077	
8.480	-0.118	-0.071	
8.485	0.394	-0.053	
8.490	0.247	0.008	
8.495	-0.089	0.073	
8.500	0.166	0.103	
8.505	0.114	0.115	
8.510	-0.237	0.107	
8.515	-0.155	0.059	
8.520	0.084	0.004	
8.525	-0.182	-0.032	
8.530	-0.211	-0.066	
8.535	0.137	-0.093	
8.540	-0.037	-0.087	
8.545	-0.237	-0.076	
8.550	0.017	-0.080	
8.555	0.122	-0.071	
8.560	-0.194	-0.050	
8.565	-0.084	-0.047	
8.570	0.252	-0.042	
8.575	-0.098	-0.017	
8.580	-0.152	-0.006	
8.585	0.201	-0.009	
8.590	0.001	0.003	
8.595	-0.200	0.009	
8.600	0.065	-0.006	
8.605	0.168	-0.007	
8.610	-0.194	0.003	
8.615	-0.080	-0.006	
8.620	0.230	-0.016	
8.625	-0.097	-0.004	
8.630	-0.150	-0.003	
8.635	0.215	-0.010	
8.640	0.018	0.002	
8.645	-0.191	0.010	
8.650	0.125	0.001	
8.655	0.198	0.009	
8.660	-0.182	0.026	
8.665	-0.042	0.021	
8.670	0.284	0.015	
8.675	-0.068	0.030	
8.680	-0.135	0.033	
8.685	0.220	0.023	
8.690	0.033	0.029	
8.695	-0.197	0.031	
8.700	0.050	0.012	
8.705	0.142	0.002	
8.710	-0.193	0.004	
8.715	-0.071	-0.011	
8.720	0.217	-0.021	
8.725	-0.118	-0.011	
8.730	-0.170	-0.013	
8.735	0.194	-0.024	
8.740	0.024	-0.013	
8.745	-0.199	-0.004	
8.750	0.087	-0.012	
8.755	0.218	-0.004	
8.760	-0.144	0.017	
8.765	-0.055	0.019	
8.770	0.261	0.017	
8.775	-0.106	0.029	
8.780	-0.165	0.025	
8.785	0.162	0.005	
8.790	-0.023	0.001	
8.795	-0.237	-0.007	
8.800	-0.000	-0.033	
8.805	0.088	-0.046	
8.810	-0.237	-0.047	
8.815	-0.133	-0.063	
8.820	0.130	-0.076	
8.825	-0.164	-0.070	
8.830	-0.203	-0.073	
8.835	0.113	-0.082	
8.840	-0.037	-0.072	
8.845	-0.228	-0.063	
8.850	0.021	-0.068	
8.855	0.113	-0.062	
8.860	-0.220	-0.046	
8.865	-0.103	-0.049	
8.870	0.258	-0.050	
8.875	-0.025	-0.023	
8.880	-0.020	0.003	
8.885	0.519	0.036	
8.890	0.281	0.106	
8.895	-0.122	0.165	
8.900	0.107	0.170	
8.905	0.137	0.152	
8.910	-0.216	0.122	
8.915	-0.113	0.066	
8.920	0.174	0.014	
8.925	-0.142	-0.010	
8.930	-0.194	-0.034	
8.935	0.133	-0.058	
8.940	-0.014	-0.056	
8.945	-0.210	-0.050	
8.950	0.030	-0.056	
8.955	0.142	-0.049	
8.960	-0.174	-0.030	
8.965	-0.060	-0.028	
8.970	0.258	-0.023	
8.975	-0.081	0.001	
8.980	-0.150	0.010	
8.985	0.238	0.006	
8.990	0.056	0.021	
8.995	-0.181	0.032	
9.000	0.088	0.021	
9.005	0.224	0.023	
9.010	-0.142	0.037	
9.015	-0.034	0.033	
9.020	0.337	0.031	
9.025	-0.031	0.052	
9.030	-0.132	0.060	
9.035	0.241	0.050	
9.040	0.052	0.054	
9.045	-0.179	0.054	
9.050	0.114	0.035	
9.055	0.261	0.034	
9.060	-0.124	0.050	
9.065	-0.023	0.049	
9.070	0.321	0.046	
9.075	-0.054	0.062	
9.080	-0.148	0.062	
9.085	0.241	0.045	
9.090	0.082	0.048	
9.095	-0.171	0.051	
9.100	0.101	0.036	
9.105	0.250	0.035	
9.110	-0.136	0.049	
9.115	-0.035	0.045	
9.120	0.318	0.039	
9.125	-0.054	0.054	
9.130	-0.097	0.057	
9.135	0.330	0.052	
9.140	0.140	0.072	
9.145	-0.153	0.090	
9.150	0.151	0.081	
9.155	0.270	0.081	
9.160	-0.144	0.092	
9.165	-0.057	0.076	
9.170	0.211	0.053	
9.175	-0.119	0.043	
9.180	-0.200	0.019	
9.185	0.130	-0.014	
9.190	-0.023	-0.026	
9.195	-0.278	-0.036	
9.200	-0.069	-0.064	
9.205	0.030	-0.084	
9.210	-0.245	-0.090	
9.215	-0.144	-0.104	
9.220	0.148	-0.110	
9.225	-0.129	-0.091	
9.230	-0.216	-0.080	
9.235	0.108	-0.081	
9.240	-0.006	-0.066	
9.245	-0.232	-0.053	
9.250	-0.002	-0.059	
9.255	0.142	-0.055	
9.260	-0.179	-0.038	
9.265	-0.049	-0.035	
9.270	0.391	-0.022	
9.275	0.062	0.025	
9.280	-0.042	0.066	
9.285	0.351	0.089	
9.290	0.117	0.120	
9.295	-0.197	0.131	
9.300	0.007	0.099	
9.305	0.087	0.061	
9.310	-0.229	0.029	
9.315	-0.139	-0.016	
9.320	0.157	-0.051	
9.325	-0.121	-0.057	
9.330	-0.185	-0.061	
9.335	0.171	-0.067	
9.340	0.026	-0.049	
9.345	-0.205	-0.030	
9.350	0.079	-0.030	
9.355	0.243	-0.015	
9.360	-0.119	0.016	
9.365	-0.022	0.027	
9.370	0.340	0.036	
9.375	-0.003	0.064	
9.380	-0.083	0.077	
9.385	0.333	0.077	
9.390	0.180	0.098	
9.395	-0.124	0.117	
9.400	0.212	0.111	
9.405	0.391	0.119	
9.410	-0.052	0.145	
9.415	0.061	0.147	
9.420	0.420	0.143	
9.425	0.059	0.159	
9.430	-0.077	0.159	
9.435	0.340	0.141	
9.440	0.212	0.144	
9.445	-0.103	0.149	
9.450	0.238	0.136	
9.455	0.395	0.139	
9.460	-0.061	0.160	
9.465	0.050	0.156	
9.470	0.444	0.147	
9.475	0.026	0.160	
9.480	-0.110	0.155	
9.485	0.288	0.128	
9.490	0.163	0.120	
9.495	-0.152	0.116	
9.500	0.134	0.092	
9.505	0.301	0.082	
9.510	-0.113	0.091	
9.515	0.012	0.083	
9.520	0.363	0.076	
9.525	-0.013	0.092	
9.530	-0.121	0.093	
9.535	0.284	0.078	
9.540	0.162	0.084	
9.545	-0.126	0.094	
9.550	0.186	0.086	
9.555	0.325	0.092	
9.560	-0.097	0.113	
9.565	-0.008	0.108	
9.570	0.342	0.096	
9.575	-0.019	0.103	
9.580	-0.103	0.096	
9.585	0.293	0.079	
9.590	0.154	0.085	
9.595	-0.142	0.093	
9.600	0.124	0.080	
9.605	0.288	0.077	
9.610	-0.113	0.088	
9.615	-0.023	0.079	
9.620	0.321	0.068	
9.625	-0.028	0.077	
9.630	-0.127	0.073	
9.635	0.285	0.058	
9.640	0.151	0.068	
9.645	-0.148	0.080	
9.650	0.122	0.070	
9.655	0.333	0.072	
9.660	-0.032	0.095	
9.665	0.166	0.108	
9.670	0.655	0.139	
9.675	0.218	0.207	
9.680	-0.035	0.251	
9.685	0.287	0.246	
9.690	0.090	0.227	
9.695	-0.222	0.187	
9.700	-0.029	0.116	
9.705	0.143	0.053	
9.710	-0.182	0.015	
9.715	-0.119	-0.021	
9.720	0.208	-0.045	
9.725	-0.086	-0.039	
9.730	-0.181	-0.036	
9.735	0.125	-0.042	
9.740	0.035	-0.033	
9.745	-0.205	-0.023	
9.750	0.024	-0.030	
9.755	0.211	-0.025	
9.760	-0.142	-0.004	
9.765	-0.068	0.000	
9.770	0.276	0.002	
9.775	-0.052	0.023	
9.780	-0.147	0.030	
9.785	0.223	0.022	
9.790	0.122	0.034	
9.795	-0.173	0.047	
9.800	0.064	0.037	
9.805	0.259	0.035	
9.810	-0.106	0.050	
9.815	-0.028	0.049	
9.820	0.368	0.049	
9.825	0.020	0.073	
9.830	-0.107	0.086	
9.835	0.263	0.079	
9.840	0.177	0.089	
9.845	-0.127	0.100	
9.850	0.128	0.089	
9.855	0.295	0.087	
9.860	-0.116	0.097	
9.865	-0.046	0.085	
9.870	0.293	0.068	
9.875	-0.040	0.070	
9.880	-0.153	0.060	
9.885	0.192	0.038	
9.890	0.070	0.033	
9.895	-0.190	0.032	
9.900	0.027	0.012	
9.905	0.211	0.004	
9.910	-0.133	0.013	
9.915	-0.087	0.009	
9.920	0.258	0.003	
9.925	-0.066	0.016	
9.930	-0.155	0.018	
9.935	0.169	0.007	
9.940	0.104	0.013	
9.945	-0.162	0.023	
9.950	0.059	0.017	
9.955	0.238	0.019	
9.960	-0.142	0.035	
9.965	-0.106	0.030	
9.970	0.203	0.014	
9.975	-0.092	0.014	
9.980	-0.211	0.002	
9.985	0.064	-0.025	
9.990	-0.031	-0.039	
9.995	-0.278	-0.051	
10.000	-0.081	-0.079	
10.005	0.065	-0.095	
10.010	-0.223	-0.094	
10.015	-0.176	-0.101	
10.020	0.078	-0.109	
10.025	-0.162	-0.102	
10.030	-0.257	-0.102	
10.035	-0.002	-0.115	
10.040	-0.054	-0.115	
10.045	-0.272	-0.111	
10.050	-0.084	-0.120	
10.055	0.143	-0.116	
10.060	-0.135	-0.090	
10.065	-0.005	-0.066	
10.070	0.423	-0.030	
10.075	-0.003	0.033	
10.080	-0.199	0.067	
10.085	0.041	0.055	
10.090	-0.066	0.031	
10.095	-0.295	-0.005	
10.100	-0.092	-0.056	
10.105	0.039	-0.091	
10.110	-0.239	-0.103	
10.115	-0.181	-0.119	
10.120	0.099	-0.127	
10.125	-0.135	-0.114	
10.130	-0.240	-0.105	
10.135	0.058	-0.107	
10.140	0.009	-0.093	
10.145	-0.242	-0.077	
10.150	-0.055	-0.080	
10.155	0.120	-0.077	
10.160	-0.165	-0.060	
10.165	-0.118	-0.056	
10.170	0.188	-0.054	
10.175	-0.083	-0.034	
10.180	-0.199	-0.027	
10.185	0.113	-0.035	
10.190	0.044	-0.029	
10.195	-0.208	-0.022	
10.200	-0.003	-0.031	
10.205	0.198	-0.031	
10.210	-0.158	-0.014	
10.215	-0.116	-0.014	
10.220	0.227	-0.019	
10.225	-0.061	-0.005	
10.230	-0.182	-0.001	
10.235	0.146	-0.012	
10.240	0.076	-0.006	
10.245	-0.184	0.003	
10.250	0.055	-0.004	
10.255	0.247	0.001	
10.260	-0.147	0.022	
10.265	-0.106	0.021	
10.270	0.250	0.012	
10.275	-0.052	0.021	
10.280	-0.165	0.021	
10.285	0.172	0.007	
10.290	0.110	0.012	
10.295	-0.205	0.021	
10.300	-0.013	0.007	
10.305	0.185	-0.003	
10.310	-0.165	0.001	
10.315	-0.129	-0.009	
10.320	0.208	-0.023	
10.325	-0.071	-0.015	
10.330	-0.193	-0.015	
10.335	0.139	-0.026	
10.340	0.050	-0.021	
10.345	-0.200	-0.013	
10.350	-0.009	-0.023	
10.355	0.181	-0.025	
10.360	-0.171	-0.014	
10.365	-0.129	-0.019	
10.370	0.211	-0.028	
10.375	-0.104	-0.018	
10.380	-0.240	-0.021	
10.385	0.024	-0.045	
10.390	-0.023	-0.058	
10.395	-0.265	-0.067	
10.400	-0.080	-0.088	
10.405	0.101	-0.097	
10.410	-0.213	-0.088	
10.415	-0.168	-0.090	
10.420	0.128	-0.094	
10.425	-0.122	-0.080	
10.430	-0.237	-0.075	
10.435	0.038	-0.084	
10.440	-0.009	-0.081	
10.445	-0.262	-0.076	
10.450	-0.072	-0.087	
10.455	0.151	-0.088	
10.460	-0.158	-0.069	
10.465	-0.061	-0.058	
10.470	0.431	-0.034	
10.475	0.146	0.027	
10.480	-0.084	0.082	
10.485	0.217	0.103	
10.490	0.078	0.114	
10.495	-0.260	0.103	
10.500	-0.089	0.055	
10.505	0.065	0.003	
10.510	-0.205	-0.030	
10.515	-0.174	-0.065	
10.520	0.131	-0.089	
10.525	-0.106	-0.086	
10.530	-0.211	-0.082	
10.535	0.114	-0.084	
10.540	0.018	-0.068	
10.545	-0.237	-0.051	
10.550	-0.048	-0.057	
10.555	0.146	-0.058	
10.560	-0.187	-0.045	
10.565	-0.129	-0.047	
10.570	0.244	-0.048	
10.575	-0.077	-0.027	
10.580	-0.205	-0.017	
10.585	0.119	-0.026	
10.590	0.053	-0.021	
10.595	-0.220	-0.015	
10.600	-0.011	-0.028	
10.605	0.162	-0.032	
10.610	-0.182	-0.023	
10.615	-0.129	-0.029	
10.620	0.244	-0.036	
10.625	-0.048	-0.018	
10.630	-0.173	-0.007	
10.635	0.218	-0.009	
10.640	0.223	0.015	
10.645	-0.158	0.047	
10.650	0.094	0.054	
10.655	0.301	0.063	
10.660	-0.100	0.083	
10.665	-0.058	0.080	
10.670	0.348	0.070	
10.675	0.018	0.082	
10.680	-0.138	0.084	
10.685	0.240	0.069	
10.690	0.174	0.073	
10.695	-0.161	0.081	
10.700	0.058	0.066	
10.705	0.325	0.059	
10.710	-0.086	0.074	
10.715	-0.063	0.071	
10.720	0.318	0.062	
10.725	-0.005	0.072	
10.730	-0.155	0.071	
10.735	0.185	0.051	
10.740	0.134	0.048	
10.745	-0.177	0.050	
10.750	0.041	0.034	
10.755	0.284	0.028	
10.760	-0.112	0.043	
10.765	-0.092	0.041	
10.770	0.267	0.031	
10.775	-0.029	0.040	
10.780	-0.187	0.037	
10.785	0.124	0.017	
10.790	0.070	0.009	
10.795	-0.226	0.006	
10.800	-0.046	-0.017	
10.805	0.169	-0.032	
10.810	-0.173	-0.028	
10.815	-0.148	-0.036	
10.820	0.191	-0.046	
10.825	-0.064	-0.035	
10.830	-0.205	-0.029	
10.835	0.116	-0.038	
10.840	0.084	-0.030	
10.845	-0.217	-0.018	
10.850	-0.068	-0.027	
10.855	0.136	-0.037	
10.860	-0.148	-0.033	
10.865	-0.068	-0.035	
10.870	0.421	-0.023	
10.875	0.149	0.029	
10.880	-0.103	0.078	
10.885	0.244	0.097	
10.890	0.139	0.112	
10.895	-0.234	0.112	
10.900	-0.084	0.072	
10.905	0.136	0.027	
10.910	-0.173	0.001	
10.915	-0.170	-0.030	
10.920	0.152	-0.056	
10.925	-0.055	-0.055	
10.930	-0.193	-0.051	
10.935	0.120	-0.055	
10.940	0.097	-0.040	
10.945	-0.200	-0.020	
10.950	0.020	-0.019	
10.955	0.270	-0.010	
10.960	-0.104	0.017	
10.965	-0.075	0.026	
10.970	0.353	0.031	
10.975	0.039	0.058	
10.980	-0.156	0.074	
10.985	0.191	0.064	
10.990	0.154	0.065	
10.995	-0.176	0.068	
11.000	0.017	0.049	
11.005	0.298	0.038	
11.010	-0.097	0.049	
11.015	-0.087	0.046	
11.020	0.292	0.037	
11.025	0.030	0.050	
11.030	-0.133	0.057	
11.035	0.244	0.051	
11.040	0.241	0.066	
11.045	-0.121	0.089	
11.050	0.111	0.089	
11.055	0.362	0.094	
11.060	-0.069	0.114	
11.065	-0.066	0.111	
11.070	0.334	0.094	
11.075	0.059	0.100	
11.080	-0.127	0.099	
11.085	0.215	0.081	
11.090	0.212	0.081	
11.095	-0.138	0.089	
11.100	0.023	0.075	
11.105	0.284	0.063	
11.110	-0.086	0.069	
11.115	-0.061	0.061	
11.120	0.348	0.053	
11.125	0.093	0.072	
11.130	-0.100	0.089	
11.135	0.282	0.088	
11.140	0.276	0.106	
11.145	-0.083	0.130	
11.150	0.180	0.131	
11.155	0.443	0.141	
11.160	-0.000	0.169	
11.165	0.013	0.172	
11.170	0.432	0.163	
11.175	0.104	0.174	
11.180	-0.115	0.172	
11.185	0.233	0.144	
11.190	0.171	0.127	
11.195	-0.181	0.114	
11.200	-0.020	0.077	
11.205	0.208	0.044	
11.210	-0.121	0.032	
11.215	-0.122	0.013	
11.220	0.233	-0.005	
11.225	-0.014	0.003	
11.230	-0.168	0.007	
11.235	0.137	-0.001	
11.240	0.136	0.006	
11.245	-0.177	0.019	
11.250	-0.025	0.010	
11.255	0.211	0.004	
11.260	-0.104	0.013	
11.265	-0.032	0.014	
11.270	0.489	0.027	
11.275	0.304	0.085	
11.280	-0.009	0.149	
11.285	0.334	0.181	
11.290	0.270	0.206	
11.295	-0.135	0.215	
11.300	0.033	0.181	
11.305	0.240	0.139	
11.310	-0.097	0.112	
11.315	-0.101	0.075	
11.320	0.252	0.041	
11.325	-0.006	0.035	
11.330	-0.173	0.029	
11.335	0.128	0.010	
11.340	0.085	0.007	
11.345	-0.199	0.008	
11.350	-0.029	-0.008	
11.355	0.232	-0.016	
11.360	-0.084	-0.001	
11.365	-0.090	0.006	
11.370	0.296	0.009	
11.375	0.041	0.034	
11.380	-0.148	0.051	
11.385	0.160	0.045	
11.390	0.177	0.050	
11.395	-0.142	0.060	
11.400	0.055	0.052	
11.405	0.366	0.054	
11.410	-0.019	0.080	
11.415	-0.034	0.092	
11.420	0.368	0.094	
11.425	0.113	0.115	
11.430	-0.110	0.126	
11.435	0.241	0.115	
11.440	0.244	0.116	
11.445	-0.113	0.124	
11.450	0.101	0.110	
11.455	0.408	0.106	
11.460	-0.020	0.126	
11.465	-0.040	0.127	
11.470	0.365	0.117	
11.475	0.088	0.126	
11.480	-0.122	0.127	
11.485	0.204	0.106	
11.490	0.192	0.098	
11.495	-0.158	0.096	
11.500	0.006	0.072	
11.505	0.295	0.054	
11.510	-0.077	0.059	
11.515	-0.092	0.053	
11.520	0.298	0.042	
11.525	0.068	0.055	
11.530	-0.130	0.065	
11.535	0.220	0.060	
11.540	0.296	0.074	
11.545	-0.092	0.100	
11.550	0.108	0.105	
11.555	0.414	0.113	
11.560	0.003	0.139	
11.565	-0.019	0.145	
11.570	0.395	0.138	
11.575	0.130	0.150	
11.580	-0.119	0.153	
11.585	0.258	0.134	
11.590	0.504	0.141	
11.595	0.263	0.189	
11.600	0.620	0.254	
11.605	0.929	0.351	
11.610	0.475	0.470	
11.615	0.403	0.547	
11.620	0.800	0.580	
11.625	0.501	0.605	
11.630	0.120	0.594	
11.635	0.495	0.536	
11.640	0.496	0.483	
11.645	-0.016	0.435	
11.650	0.146	0.360	
11.655	0.415	0.288	
11.660	-0.023	0.244	
11.665	-0.063	0.191	
11.670	0.403	0.142	
11.675	0.241	0.137	
11.680	0.029	0.151	
11.685	0.380	0.162	
11.690	0.331	0.189	
11.695	-0.187	0.207	
11.700	-0.119	0.170	
11.705	0.023	0.102	
11.710	-0.232	0.036	
11.715	-0.255	-0.036	
11.720	-0.005	-0.099	
11.725	-0.138	-0.130	
11.730	-0.295	-0.148	
11.735	-0.066	-0.166	
11.740	-0.022	-0.165	
11.745	-0.280	-0.152	
11.750	-0.161	-0.152	
11.755	0.027	-0.150	
11.760	-0.217	-0.137	
11.765	-0.239	-0.134	
11.770	0.035	-0.139	
11.775	-0.110	-0.129	
11.780	-0.292	-0.122	
11.785	-0.052	-0.130	
11.790	0.024	-0.128	
11.795	-0.262	-0.115	
11.800	-0.142	-0.117	
11.805	0.091	-0.118	
11.810	-0.171	-0.102	
11.815	-0.194	-0.096	
11.820	0.131	-0.095	
11.825	-0.057	-0.077	
11.830	-0.225	-0.063	
11.835	0.061	-0.065	
11.840	0.142	-0.052	
11.845	-0.162	-0.028	
11.850	-0.028	-0.021	
11.855	0.227	-0.013	
11.860	-0.112	0.008	
11.865	-0.147	0.010	
11.870	0.197	-0.000	
11.875	-0.017	0.005	
11.880	-0.203	0.005	
11.885	0.055	-0.013	
11.890	0.133	-0.018	
11.895	-0.174	-0.010	
11.900	-0.064	-0.017	
11.905	0.159	-0.024	
11.910	-0.136	-0.018	
11.915	-0.162	-0.024	
11.920	0.172	-0.036	
11.925	-0.020	-0.028	
11.930	-0.203	-0.022	
11.935	0.079	-0.031	
11.940	0.169	-0.024	
11.945	-0.148	-0.004	
11.950	-0.000	0.001	
11.955	0.305	0.010	
11.960	-0.055	0.039	
11.965	-0.100	0.050	
11.970	0.258	0.046	
11.975	0.041	0.057	
11.980	-0.171	0.060	
11.985	0.105	0.041	
11.990	0.166	0.033	
11.995	-0.208	0.034	
12.000	-0.077	0.013	
12.005	0.186	-0.008	
12.010	-0.129	-0.009	
12.015	-0.162	-0.018	
12.020	0.181	-0.032	
12.025	0.003	-0.024	
12.030	-0.190	-0.015	
12.035	0.082	-0.022	
12.040	0.183	-0.014	
12.045	-0.147	0.007	
12.050	-0.019	0.009	
12.055	0.282	0.014	
12.060	-0.083	0.035	
12.065	-0.119	0.038	
12.070	0.298	0.032	
12.075	0.162	0.052	
12.080	-0.038	0.080	
12.085	0.452	0.103	
12.090	0.542	0.161	
12.095	0.013	0.231	
12.100	0.094	0.253	
12.105	0.318	0.242	
12.110	-0.087	0.221	
12.115	-0.148	0.170	
12.120	0.204	0.105	
12.125	0.009	0.066	
12.130	-0.188	0.036	
12.135	0.091	0.002	
12.140	0.194	-0.006	
12.145	-0.181	0.005	
12.150	-0.057	-0.001	
12.155	0.270	-0.005	
12.160	-0.064	0.013	
12.165	-0.115	0.021	
12.170	0.238	0.019	
12.175	0.059	0.033	
12.180	-0.132	0.045	
12.185	0.151	0.040	
12.190	0.215	0.048	
12.195	-0.142	0.063	
12.200	0.003	0.056	
12.205	0.307	0.050	
12.210	-0.069	0.063	
12.215	-0.122	0.060	
12.220	0.247	0.044	
12.225	0.065	0.049	
12.230	-0.152	0.052	
12.235	0.148	0.040	
12.240	0.243	0.045	
12.245	-0.121	0.062	
12.250	-0.013	0.059	
12.255	0.282	0.053	
12.260	-0.074	0.062	
12.265	-0.141	0.055	
12.270	0.177	0.033	
12.275	0.004	0.026	
12.280	-0.171	0.019	
12.285	0.055	-0.002	
12.290	0.090	-0.010	
12.295	-0.234	-0.012	
12.300	-0.145	-0.035	
12.305	0.062	-0.061	
12.310	-0.185	-0.072	
12.315	-0.222	-0.089	
12.320	0.076	-0.106	
12.325	-0.064	-0.101	
12.330	-0.265	-0.095	
12.335	-0.022	-0.102	
12.340	0.055	-0.099	
12.345	-0.225	-0.085	
12.350	-0.089	-0.085	
12.355	0.295	-0.074	
12.360	-0.045	-0.034	
12.365	-0.148	-0.006	
12.370	0.171	0.002	
12.375	-0.058	0.011	
12.380	-0.265	0.004	
12.385	-0.028	-0.029	
12.390	0.021	-0.053	
12.395	-0.257	-0.067	
12.400	-0.173	-0.092	
12.405	0.013	-0.114	
12.410	-0.255	-0.123	
12.415	-0.298	-0.141	
12.420	-0.058	-0.166	
12.425	-0.168	-0.175	
12.430	-0.359	-0.181	
12.435	-0.162	-0.200	
12.440	-0.101	-0.208	
12.445	-0.336	-0.206	
12.450	-0.228	-0.213	
12.455	-0.019	-0.215	
12.460	-0.231	-0.199	
12.465	-0.286	-0.190	
12.470	-0.066	-0.190	
12.475	-0.174	-0.183	
12.480	-0.329	-0.180	
12.485	-0.038	-0.185	
12.490	0.168	-0.165	
12.495	-0.097	-0.115	
12.500	0.044	-0.068	
12.505	0.250	-0.022	
12.510	-0.174	0.022	
12.515	-0.271	0.023	
12.520	-0.042	-0.016	
12.525	-0.142	-0.055	
12.530	-0.301	-0.093	
12.535	-0.049	-0.131	
12.540	0.024	-0.143	
12.545	-0.243	-0.134	
12.550	-0.148	-0.133	
12.555	0.156	-0.125	
12.560	-0.136	-0.097	
12.565	-0.177	-0.079	
12.570	0.146	-0.072	
12.575	-0.002	-0.049	
12.580	-0.211	-0.033	
12.585	0.027	-0.037	
12.590	0.163	-0.031	
12.595	-0.165	-0.014	
12.600	-0.072	-0.014	
12.605	0.253	-0.014	
12.610	-0.089	0.004	
12.615	-0.145	0.009	
12.620	0.215	0.003	
12.625	0.046	0.014	
12.630	-0.200	0.022	
12.635	0.061	0.008	
12.640	0.201	0.006	
12.645	-0.159	0.017	
12.650	-0.063	0.012	
12.655	0.269	0.006	
12.660	-0.081	0.020	
12.665	-0.145	0.022	
12.670	0.221	0.011	
12.675	0.055	0.020	
12.680	-0.197	0.027	
12.685	0.064	0.013	
12.690	0.185	0.009	
12.695	-0.171	0.017	
12.700	-0.063	0.008	
12.705	0.266	0.000	
12.710	-0.115	0.013	
12.715	-0.173	0.010	
12.720	0.194	-0.005	
12.725	0.038	-0.000	
12.730	-0.199	0.006	
12.735	0.064	-0.006	
12.740	0.206	-0.005	
12.745	-0.150	0.012	
12.750	-0.051	0.011	
12.755	0.285	0.010	
12.760	-0.046	0.030	
12.765	-0.118	0.037	
12.770	0.288	0.035	
12.775	0.130	0.054	
12.780	-0.132	0.073	
12.785	0.149	0.069	
12.790	0.293	0.076	
12.795	-0.100	0.095	
12.800	-0.011	0.090	
12.805	0.296	0.079	
12.810	-0.054	0.084	
12.815	-0.133	0.073	
12.820	0.233	0.050	
12.825	0.070	0.048	
12.830	-0.199	0.047	
12.835	0.050	0.024	
12.840	0.211	0.014	
12.845	-0.136	0.022	
12.850	-0.095	0.014	
12.855	0.244	0.004	
12.860	-0.074	0.013	
12.865	-0.141	0.013	
12.870	0.233	0.005	
12.875	0.033	0.017	
12.880	-0.223	0.023	
12.885	0.015	0.003	
12.890	0.191	-0.007	
12.895	-0.116	0.002	
12.900	0.073	0.008	
12.905	0.539	0.035	
12.910	0.174	0.103	
12.915	0.001	0.159	
12.920	0.360	0.181	
12.925	0.128	0.198	
12.930	-0.214	0.189	
12.935	-0.042	0.133	
12.940	0.068	0.071	
12.945	-0.237	0.021	
12.950	-0.168	-0.034	
12.955	0.076	-0.078	
12.960	-0.165	-0.094	
12.965	-0.240	-0.107	
12.970	0.076	-0.120	
12.975	-0.034	-0.110	
12.980	-0.236	-0.095	
12.985	-0.029	-0.095	
12.990	0.117	-0.085	
12.995	-0.187	-0.064	
13.000	-0.083	-0.058	
13.005	0.264	-0.048	
13.010	-0.045	-0.016	
13.015	-0.133	0.005	
13.020	0.252	0.011	
13.025	0.156	0.037	
13.030	-0.145	0.062	
13.035	0.105	0.061	
13.040	0.272	0.065	
13.045	-0.104	0.080	
13.050	-0.016	0.075	
13.055	0.394	0.071	
13.060	0.036	0.093	
13.065	-0.101	0.103	
13.070	0.299	0.096	
13.075	0.206	0.107	
13.080	-0.129	0.119	
13.085	0.159	0.108	
13.090	0.311	0.106	
13.095	-0.072	0.118	
13.100	0.013	0.111	
13.105	0.324	0.099	
13.110	-0.052	0.104	
13.115	-0.159	0.089	
13.120	0.191	0.057	
13.125	0.079	0.045	
13.130	-0.200	0.038	
13.135	0.024	0.013	
13.140	0.180	0.000	
13.145	-0.167	0.004	
13.150	-0.098	-0.007	
13.155	0.263	-0.015	
13.160	-0.077	-0.001	
13.165	-0.168	0.004	
13.170	0.188	-0.005	
13.175	0.079	0.005	
13.180	-0.187	0.016	
13.185	0.058	0.008	
13.190	0.258	0.011	
13.195	-0.109	0.032	
13.200	-0.038	0.036	
13.205	0.311	0.038	
13.210	-0.042	0.056	
13.215	-0.135	0.060	
13.220	0.217	0.046	
13.225	0.026	0.045	
13.230	-0.225	0.039	
13.235	-0.005	0.009	
13.240	0.163	-0.011	
13.245	-0.181	-0.012	
13.250	-0.129	-0.026	
13.255	0.175	-0.040	
13.260	-0.115	-0.034	
13.265	-0.220	-0.038	
13.270	0.085	-0.054	
13.275	0.018	-0.054	
13.280	-0.205	-0.048	
13.285	-0.017	-0.055	
13.290	0.120	-0.053	
13.295	-0.213	-0.042	
13.300	-0.115	-0.049	
13.305	0.299	-0.049	
13.310	0.058	-0.016	
13.315	-0.011	0.023	
13.320	0.417	0.058	
13.325	0.221	0.113	
13.330	-0.161	0.151	
13.335	0.010	0.138	
13.340	0.096	0.104	
13.345	-0.225	0.067	
13.350	-0.159	0.013	
13.355	0.148	-0.034	
13.360	-0.112	-0.050	
13.365	-0.184	-0.061	
13.370	0.149	-0.070	
13.375	0.038	-0.054	
13.380	-0.208	-0.036	
13.385	-0.019	-0.039	
13.390	0.157	-0.037	
13.395	-0.168	-0.023	
13.400	-0.095	-0.025	
13.405	0.252	-0.026	
13.410	-0.063	-0.006	
13.415	-0.159	0.004	
13.420	0.232	0.001	
13.425	0.133	0.019	
13.430	-0.187	0.039	
13.435	0.030	0.032	
13.440	0.235	0.028	
13.445	-0.142	0.037	
13.450	-0.087	0.028	
13.455	0.235	0.015	
13.460	-0.074	0.020	
13.465	-0.197	0.014	
13.470	0.156	-0.006	
13.475	0.088	-0.006	
13.480	-0.167	0.003	
13.485	0.084	-0.000	
13.490	0.299	0.012	
13.495	-0.121	0.041	
13.500	-0.086	0.047	
13.505	0.269	0.040	
13.510	-0.055	0.047	
13.515	-0.170	0.042	
13.520	0.185	0.022	
13.525	0.114	0.022	
13.530	-0.168	0.030	
13.535	0.064	0.021	
13.540	0.327	0.025	
13.545	-0.090	0.052	
13.550	-0.063	0.059	
13.555	0.295	0.056	
13.560	-0.042	0.066	
13.565	-0.171	0.061	
13.570	0.166	0.037	
13.575	0.091	0.030	
13.580	-0.188	0.028	
13.585	0.035	0.011	
13.590	0.267	0.007	
13.595	-0.126	0.024	
13.600	-0.069	0.026	
13.605	0.319	0.025	
13.610	0.009	0.046	
13.615	-0.138	0.057	
13.620	0.221	0.050	
13.625	0.152	0.058	
13.630	-0.158	0.069	
13.635	0.038	0.055	
13.640	0.226	0.045	
13.645	-0.171	0.047	
13.650	-0.156	0.026	
13.655	0.148	-0.004	
13.660	-0.104	-0.017	
13.665	-0.205	-0.032	
13.670	0.113	-0.052	
13.675	0.062	-0.049	
13.680	-0.203	-0.036	
13.685	-0.020	-0.040	
13.690	0.145	-0.040	
13.695	-0.170	-0.027	
13.700	-0.103	-0.030	
13.705	0.307	-0.029	
13.710	0.049	0.003	
13.715	-0.061	0.034	
13.720	0.377	0.057	
13.725	0.238	0.100	
13.730	-0.153	0.136	
13.735	0.023	0.126	
13.740	0.188	0.102	
13.745	-0.190	0.080	
13.750	-0.159	0.039	
13.755	0.169	-0.004	
13.760	-0.068	-0.019	
13.765	-0.194	-0.031	
13.770	0.159	-0.044	
13.775	0.133	-0.031	
13.780	-0.170	-0.007	
13.785	0.059	-0.001	
13.790	0.258	0.012	
13.795	-0.136	0.036	
13.800	-0.090	0.037	
13.805	0.287	0.029	
13.810	0.021	0.043	
13.815	-0.110	0.052	
13.820	0.240	0.049	
13.825	0.186	0.064	
13.830	-0.133	0.081	
13.835	0.096	0.076	
13.840	0.347	0.078	
13.845	-0.071	0.098	
13.850	-0.028	0.097	
13.855	0.394	0.092	
13.860	0.096	0.112	
13.865	-0.104	0.123	
13.870	0.273	0.113	
13.875	0.270	0.120	
13.880	-0.118	0.134	
13.885	0.143	0.124	
13.890	0.388	0.122	
13.895	-0.035	0.139	
13.900	-0.023	0.135	
13.905	0.408	0.124	
13.910	0.085	0.136	
13.915	-0.092	0.139	
13.920	0.340	0.126	
13.925	0.299	0.137	
13.930	-0.106	0.156	
13.935	0.146	0.147	
13.940	0.408	0.143	
13.945	-0.022	0.158	
13.950	-0.026	0.152	
13.955	0.394	0.136	
13.960	0.104	0.142	
13.965	-0.075	0.144	
13.970	0.333	0.131	
13.975	0.301	0.142	
13.980	-0.106	0.159	
13.985	0.113	0.148	
13.990	0.441	0.141	
13.995	0.024	0.158	
14.000	0.013	0.161	
14.005	0.418	0.154	
14.010	0.091	0.166	
14.015	-0.106	0.164	
14.020	0.247	0.139	
14.025	0.195	0.127	
14.030	-0.164	0.120	
14.035	0.032	0.090	
14.040	0.281	0.067	
14.045	-0.138	0.064	
14.050	-0.142	0.045	
14.055	0.227	0.018	
14.060	-0.055	0.013	
14.065	-0.203	0.004	
14.070	0.111	-0.017	
14.075	0.119	-0.018	
14.080	-0.203	-0.008	
14.085	-0.054	-0.018	
14.090	0.191	-0.025	
14.095	-0.158	-0.016	
14.100	-0.153	-0.021	
14.105	0.220	-0.031	
14.110	0.013	-0.017	
14.115	-0.089	0.001	
14.120	0.376	0.019	
14.125	0.321	0.070	
14.130	-0.141	0.122	
14.135	0.007	0.128	
14.140	0.211	0.111	
14.145	-0.164	0.094	
14.150	-0.150	0.056	
14.155	0.201	0.015	
14.160	-0.049	0.002	
14.165	-0.185	-0.009	
14.170	0.139	-0.026	
14.175	0.128	-0.019	
14.180	-0.182	-0.002	
14.185	0.015	-0.004	
14.190	0.240	0.000	
14.195	-0.119	0.019	
14.200	-0.092	0.021	
14.205	0.313	0.018	
14.210	0.001	0.038	
14.215	-0.181	0.047	
14.220	0.152	0.034	
14.225	0.180	0.035	
14.230	-0.144	0.046	
14.235	0.027	0.039	
14.240	0.302	0.038	
14.245	-0.098	0.056	
14.250	-0.095	0.054	
14.255	0.316	0.045	
14.260	0.072	0.060	
14.265	-0.119	0.072	
14.270	0.240	0.068	
14.275	0.241	0.081	
14.280	-0.118	0.101	
14.285	0.084	0.096	
14.290	0.377	0.095	
14.295	-0.060	0.113	
14.300	-0.072	0.110	
14.305	0.318	0.093	
14.310	0.044	0.096	
14.315	-0.145	0.091	
14.320	0.181	0.069	
14.325	0.139	0.062	
14.330	-0.193	0.059	
14.335	-0.017	0.035	
14.340	0.230	0.017	
14.345	-0.129	0.019	
14.350	-0.129	0.010	
14.355	0.249	-0.003	
14.360	-0.008	0.008	
14.365	-0.188	0.014	
14.370	0.156	0.004	
14.375	0.192	0.013	
14.380	-0.155	0.032	
14.385	0.036	0.032	
14.390	0.336	0.038	
14.395	-0.066	0.064	
14.400	-0.081	0.070	
14.405	0.321	0.064	
14.410	0.042	0.078	
14.415	-0.150	0.082	
14.420	0.177	0.065	
14.425	0.189	0.063	
14.430	-0.161	0.068	
14.435	0.010	0.053	
14.440	0.299	0.043	
14.445	-0.104	0.053	
14.450	-0.138	0.046	
14.455	0.174	0.025	
14.460	-0.042	0.018	
14.465	-0.205	0.005	
14.470	0.107	-0.017	
14.475	0.136	-0.019	
14.480	-0.184	-0.007	
14.485	-0.025	-0.012	
14.490	0.223	-0.012	
14.495	-0.153	0.002	
14.500	-0.168	-0.003	
14.505	0.203	-0.018	
14.510	0.055	-0.009	
14.515	-0.080	0.008	
14.520	0.392	0.028	
14.525	0.443	0.086	
14.530	-0.054	0.155	
14.535	0.061	0.178	
14.540	0.249	0.172	
14.545	-0.141	0.156	
14.550	-0.158	0.111	
14.555	0.177	0.055	
14.560	-0.028	0.025	
14.565	-0.176	0.004	
14.570	0.113	-0.020	
14.575	0.122	-0.020	
14.580	-0.187	-0.009	
14.585	-0.034	-0.015	
14.590	0.263	-0.014	
14.595	-0.097	0.007	
14.600	-0.124	0.013	
14.605	0.269	0.010	
14.610	0.029	0.028	
14.615	-0.158	0.039	
14.620	0.166	0.031	
14.625	0.211	0.040	
14.630	-0.138	0.057	
14.635	0.024	0.054	
14.640	0.333	0.053	
14.645	-0.043	0.073	
14.650	-0.061	0.078	
14.655	0.356	0.074	
14.660	0.097	0.094	
14.665	-0.129	0.105	
14.670	0.214	0.094	
14.675	0.255	0.097	
14.680	-0.129	0.108	
14.685	0.020	0.094	
14.690	0.325	0.081	
14.695	-0.052	0.088	
14.700	-0.068	0.082	
14.705	0.345	0.072	
14.710	0.097	0.086	
14.715	-0.119	0.097	
14.720	0.233	0.089	
14.725	0.295	0.098	
14.730	-0.124	0.116	
14.735	0.020	0.107	
14.740	0.301	0.093	
14.745	-0.081	0.094	
14.750	-0.101	0.078	
14.755	0.282	0.056	
14.760	0.044	0.059	
14.765	-0.156	0.059	
14.770	0.168	0.043	
14.775	0.233	0.047	
14.780	-0.113	0.064	
14.785	0.068	0.064	
14.790	0.356	0.070	
14.795	-0.048	0.093	
14.800	-0.080	0.096	
14.805	0.301	0.084	
14.810	0.072	0.090	
14.815	-0.155	0.090	
14.820	0.151	0.069	
14.825	0.194	0.062	
14.830	-0.161	0.064	
14.835	-0.022	0.047	
14.840	0.266	0.032	
14.845	-0.097	0.038	
14.850	-0.144	0.031	
14.855	0.204	0.013	
14.860	-0.019	0.014	
14.865	-0.208	0.009	
14.870	0.065	-0.012	
14.875	0.151	-0.016	
14.880	-0.164	-0.006	
14.885	-0.026	-0.009	
14.890	0.266	-0.007	
14.895	-0.084	0.015	
14.900	-0.126	0.022	
14.905	0.214	0.015	
14.910	0.018	0.024	
14.915	-0.177	0.027	
14.920	0.180	0.017	
14.925	0.345	0.033	
14.930	0.010	0.075	
14.935	0.324	0.114	
14.940	0.618	0.171	
14.945	0.145	0.246	
14.950	-0.020	0.279	
14.955	0.322	0.263	
14.960	0.055	0.238	
14.965	-0.176	0.194	
14.970	0.107	0.127	
14.975	0.183	0.081	
14.980	-0.142	0.059	
14.985	-0.019	0.032	
14.990	0.266	0.016	
14.995	-0.068	0.026	
15.000	-0.092	0.028	
15.005	0.296	0.026	
15.010	0.076	0.047	
15.015	-0.138	0.063	
15.020	0.203	0.059	
15.025	0.310	0.073	
15.030	-0.086	0.100	
15.035	0.073	0.105	
15.040	0.411	0.110	
15.045	0.024	0.134	
15.050	-0.038	0.141	
15.055	0.340	0.131	
15.060	0.156	0.139	
15.065	-0.112	0.142	
15.070	0.181	0.123	
15.075	0.240	0.113	
15.080	-0.133	0.112	
15.085	0.010	0.090	
15.090	0.331	0.073	
15.095	-0.029	0.080	
15.100	-0.075	0.078	
15.105	0.311	0.069	
15.110	0.062	0.080	
15.115	-0.170	0.083	
15.120	0.125	0.062	
15.125	0.192	0.053	
15.130	-0.167	0.054	
15.135	-0.051	0.036	
15.140	0.226	0.019	
15.145	-0.100	0.021	
15.150	-0.144	0.012	
15.155	0.203	-0.003	
15.160	0.017	0.003	
15.165	-0.187	0.008	
15.170	0.076	-0.004	
15.175	0.149	-0.004	
15.180	-0.207	0.005	
15.185	-0.008	-0.005	
15.190	0.354	-0.002	
15.195	-0.045	0.030	
15.200	-0.139	0.046	
15.205	0.152	0.037	
15.210	-0.019	0.033	
15.215	-0.179	0.022	
15.220	0.087	-0.001	
15.225	0.166	-0.005	
15.230	-0.164	0.006	
15.235	-0.048	0.001	
15.240	0.290	-0.001	
15.245	-0.054	0.021	
15.250	-0.063	0.033	
15.255	0.287	0.038	
15.260	0.172	0.065	
15.265	-0.057	0.093	
15.270	0.270	0.104	
15.275	0.394	0.131	
15.280	0.018	0.170	
15.285	0.229	0.188	
15.290	0.615	0.213	
15.295	0.266	0.265	
15.300	0.081	0.298	
15.305	0.580	0.306	
15.310	0.403	0.330	
15.315	-0.005	0.344	
15.320	0.304	0.320	
15.325	0.618	0.305	
15.330	0.186	0.321	
15.335	0.269	0.328	
15.340	0.649	0.334	
15.345	0.437	0.368	
15.350	0.363	0.404	
15.355	0.687	0.432	
15.360	0.382	0.464	
15.365	-0.071	0.458	
15.370	0.117	0.387	
15.375	0.255	0.300	
15.380	-0.097	0.226	
15.385	-0.031	0.150	
15.390	0.275	0.090	
15.395	-0.029	0.066	
15.400	-0.148	0.046	
15.405	0.125	0.018	
15.410	0.012	0.006	
15.415	-0.211	-0.004	
15.420	-0.060	-0.030	
15.425	0.044	-0.050	
15.430	-0.200	-0.059	
15.435	-0.155	-0.076	
15.440	0.049	-0.092	
15.445	-0.159	-0.092	
15.450	-0.260	-0.100	
15.455	-0.075	-0.120	
15.460	-0.121	-0.133	
15.465	-0.303	-0.143	
15.470	-0.118	-0.160	
15.475	-0.045	-0.166	
15.480	-0.294	-0.162	
15.485	-0.216	-0.169	
15.490	0.004	-0.174	
15.495	-0.205	-0.164	
15.500	-0.338	-0.163	
15.505	-0.110	-0.178	
15.510	-0.138	-0.185	
15.515	-0.323	-0.187	
15.520	-0.177	-0.197	
15.525	-0.104	-0.202	
15.530	-0.309	-0.200	
15.535	-0.268	-0.207	
15.540	-0.066	-0.214	
15.545	-0.219	-0.207	
15.550	-0.307	-0.203	
15.555	-0.072	-0.205	
15.560	-0.104	-0.194	
15.565	-0.306	-0.180	
15.570	-0.161	-0.180	
15.575	-0.038	-0.178	
15.580	-0.257	-0.166	
15.585	-0.210	-0.165	
15.590	0.017	-0.165	
15.595	-0.165	-0.150	
15.600	-0.260	-0.141	
15.605	-0.025	-0.144	
15.610	-0.071	-0.136	
15.615	-0.280	-0.128	
15.620	-0.136	-0.135	
15.625	-0.016	-0.140	
15.630	-0.239	-0.136	
15.635	-0.200	-0.140	
15.640	0.012	-0.146	
15.645	-0.174	-0.138	
15.650	-0.317	-0.138	
15.655	-0.127	-0.156	
15.660	-0.177	-0.171	
15.665	-0.388	-0.187	
15.670	-0.257	-0.216	
15.675	-0.167	-0.240	
15.680	-0.394	-0.253	
15.685	-0.375	-0.274	
15.690	-0.203	-0.296	
15.695	-0.350	-0.304	
15.700	-0.426	-0.314	
15.705	-0.208	-0.325	
15.710	-0.255	-0.322	
15.715	-0.423	-0.313	
15.720	-0.254	-0.314	
15.725	-0.139	-0.306	
15.730	-0.335	-0.285	
15.735	-0.294	-0.273	
15.740	-0.081	-0.263	
15.745	-0.208	-0.241	
15.750	-0.265	-0.220	
15.755	0.041	-0.201	
15.760	-0.025	-0.165	
15.765	-0.287	-0.130	
15.770	-0.161	-0.124	
15.775	-0.097	-0.131	
15.780	-0.356	-0.143	
15.785	-0.304	-0.174	
15.790	-0.084	-0.205	
15.795	-0.248	-0.216	
15.800	-0.338	-0.224	
15.805	-0.098	-0.234	
15.810	-0.119	-0.225	
15.815	-0.304	-0.209	
15.820	-0.112	-0.202	
15.825	0.007	-0.185	
15.830	-0.246	-0.158	
15.835	-0.196	-0.147	
15.840	0.015	-0.143	
15.845	-0.203	-0.132	
15.850	-0.312	-0.135	
15.855	-0.068	-0.152	
15.860	-0.127	-0.159	
15.865	-0.342	-0.164	
15.870	-0.185	-0.182	
15.875	-0.083	-0.194	
15.880	-0.336	-0.196	
15.885	-0.272	-0.208	
15.890	-0.052	-0.219	
15.895	-0.242	-0.212	
15.900	-0.336	-0.210	
15.905	-0.081	-0.216	
15.910	-0.164	-0.210	
15.915	-0.336	-0.202	
15.920	-0.109	-0.205	
15.925	0.035	-0.192	
15.930	-0.226	-0.163	
15.935	-0.156	-0.145	
15.940	0.156	-0.127	
15.945	-0.106	-0.092	
15.950	-0.202	-0.070	
15.955	0.146	-0.063	
15.960	0.061	-0.041	
15.965	-0.193	-0.019	
15.970	0.041	-0.018	
15.975	0.223	-0.009	
15.980	-0.161	0.012	
15.985	-0.077	0.012	
15.990	0.295	0.009	
15.995	-0.013	0.029	
16.000	-0.130	0.040	
16.005	0.229	0.036	
16.010	0.128	0.048	
16.015	-0.162	0.060	
16.020	0.093	0.050	
16.025	0.293	0.051	
16.030	-0.095	0.069	
16.035	-0.011	0.069	
16.040	0.340	0.067	
16.045	0.032	0.086	
16.050	-0.101	0.093	
16.055	0.305	0.086	
16.060	0.209	0.100	
16.065	-0.142	0.115	
16.070	0.127	0.103	
16.075	0.321	0.099	
16.080	-0.103	0.109	
16.085	-0.046	0.097	
16.090	0.327	0.079	
16.095	-0.037	0.082	
16.100	-0.145	0.074	
16.105	0.241	0.052	
16.110	0.127	0.053	
16.115	-0.176	0.058	
16.120	0.075	0.043	
16.125	0.284	0.040	
16.130	-0.118	0.055	
16.135	-0.063	0.052	
16.140	0.293	0.043	
16.145	-0.034	0.053	
16.150	-0.119	0.053	
16.155	0.351	0.047	
16.160	0.331	0.078	
16.165	0.029	0.126	
16.170	0.437	0.165	
16.175	0.565	0.221	
16.180	-0.016	0.280	
16.185	-0.025	0.280	
16.190	0.325	0.241	
16.195	-0.042	0.204	
16.200	-0.150	0.152	
16.205	0.232	0.094	
16.210	0.128	0.068	
16.215	-0.170	0.058	
16.220	0.058	0.035	
16.225	0.276	0.027	
16.230	-0.112	0.042	
16.235	-0.055	0.041	
16.240	0.321	0.037	
16.245	-0.022	0.055	
16.250	-0.135	0.060	
16.255	0.258	0.050	
16.260	0.168	0.061	
16.265	-0.152	0.076	
16.270	0.125	0.068	
16.275	0.357	0.073	
16.280	-0.060	0.098	
16.285	-0.028	0.102	
16.290	0.382	0.097	
16.295	0.058	0.114	
16.300	-0.083	0.120	
16.305	0.327	0.111	
16.310	0.232	0.123	
16.315	-0.121	0.137	
16.320	0.162	0.126	
16.325	0.377	0.124	
16.330	-0.055	0.140	
16.335	-0.009	0.134	
16.340	0.366	0.119	
16.345	0.024	0.125	
16.350	-0.106	0.119	
16.355	0.321	0.100	
16.360	0.232	0.108	
16.365	-0.129	0.122	
16.370	0.099	0.110	
16.375	0.295	0.100	
16.380	-0.095	0.105	
16.385	-0.046	0.090	
16.390	0.336	0.073	
16.395	0.009	0.081	
16.400	-0.136	0.079	
16.405	0.229	0.063	
16.410	0.157	0.065	
16.415	-0.162	0.072	
16.420	0.067	0.057	
16.425	0.295	0.052	
16.430	-0.092	0.065	
16.435	-0.019	0.064	
16.440	0.388	0.064	
16.445	0.041	0.089	
16.450	-0.138	0.100	
16.455	0.243	0.087	
16.460	0.178	0.089	
16.465	-0.148	0.095	
16.470	0.079	0.078	
16.475	0.302	0.070	
16.480	-0.119	0.079	
16.485	-0.080	0.068	
16.490	0.293	0.051	
16.495	-0.031	0.055	
16.500	-0.188	0.049	
16.505	0.120	0.024	
16.510	0.072	0.013	
16.515	-0.202	0.008	
16.520	-0.003	-0.012	
16.525	0.240	-0.018	
16.530	-0.133	-0.001	
16.535	-0.095	0.001	
16.540	0.282	0.000	
16.545	-0.023	0.020	
16.550	-0.161	0.030	
16.555	0.159	0.021	
16.560	0.114	0.025	
16.565	-0.162	0.033	
16.570	0.142	0.027	
16.575	0.463	0.047	
16.580	0.096	0.101	
16.585	0.165	0.147	
16.590	0.508	0.186	
16.595	0.076	0.228	
16.600	-0.145	0.231	
16.605	0.183	0.188	
16.610	0.111	0.148	
16.615	-0.185	0.111	
16.620	0.041	0.062	
16.625	0.284	0.035	
16.630	-0.122	0.038	
16.635	-0.104	0.029	
16.640	0.264	0.016	
16.645	-0.006	0.026	
16.650	-0.144	0.031	
16.655	0.218	0.025	
16.660	0.136	0.036	
16.665	-0.171	0.050	
16.670	0.049	0.040	
16.675	0.304	0.039	
16.680	-0.078	0.057	
16.685	-0.035	0.061	
16.690	0.382	0.062	
16.695	0.059	0.088	
16.700	-0.103	0.103	
16.705	0.273	0.097	
16.710	0.221	0.107	
16.715	-0.132	0.119	
16.720	0.087	0.105	
16.725	0.357	0.097	
16.730	-0.063	0.109	
16.735	-0.028	0.105	
16.740	0.388	0.095	
16.745	0.096	0.112	
16.750	-0.095	0.122	
16.755	0.322	0.115	
16.760	0.247	0.127	
16.765	-0.135	0.141	
16.770	0.078	0.124	
16.775	0.322	0.109	
16.780	-0.089	0.111	
16.785	-0.057	0.095	
16.790	0.322	0.075	
16.795	0.032	0.080	
16.800	-0.138	0.079	
16.805	0.195	0.062	
16.810	0.154	0.061	
16.815	-0.171	0.064	
16.820	0.024	0.047	
16.825	0.266	0.036	
16.830	-0.103	0.045	
16.835	-0.080	0.040	
16.840	0.264	0.030	
16.845	-0.028	0.039	
16.850	-0.173	0.038	
16.855	0.166	0.021	
16.860	0.152	0.023	
16.865	-0.177	0.033	
16.870	0.023	0.024	
16.875	0.325	0.024	
16.880	-0.084	0.047	
16.885	-0.083	0.053	
16.890	0.279	0.047	
16.895	-0.005	0.057	
16.900	-0.153	0.057	
16.905	0.168	0.040	
16.910	0.140	0.039	
16.915	-0.190	0.043	
16.920	-0.009	0.026	
16.925	0.261	0.015	
16.930	-0.119	0.025	
16.935	-0.126	0.021	
16.940	0.236	0.008	
16.945	-0.034	0.015	
16.950	-0.188	0.015	
16.955	0.120	-0.001	
16.960	0.064	-0.004	
16.965	-0.208	-0.002	
16.970	-0.031	-0.019	
16.975	0.223	-0.026	
16.980	-0.133	-0.011	
16.985	-0.115	-0.010	
16.990	0.310	-0.009	
16.995	0.117	0.021	
17.000	-0.014	0.057	
17.005	0.460	0.089	
17.010	0.400	0.149	
17.015	-0.072	0.205	
17.020	0.091	0.211	
17.025	0.247	0.192	
17.030	-0.156	0.167	
17.035	-0.152	0.114	
17.040	0.227	0.056	
17.045	-0.020	0.030	
17.050	-0.199	0.011	
17.055	0.114	-0.014	
17.060	0.130	-0.016	
17.065	-0.181	-0.006	
17.070	-0.022	-0.011	
17.075	0.232	-0.011	
17.080	-0.118	0.006	
17.085	-0.113	0.008	
17.090	0.264	0.003	
17.095	-0.002	0.020	
17.100	-0.167	0.028	
17.105	0.131	0.018	
17.110	0.134	0.020	
17.115	-0.185	0.027	
17.120	-0.005	0.015	
17.125	0.273	0.009	
17.130	-0.100	0.025	
17.135	-0.103	0.027	
17.140	0.279	0.022	
17.145	0.026	0.038	
17.150	-0.150	0.047	
17.155	0.189	0.039	
17.160	0.201	0.047	
17.165	-0.159	0.063	
17.170	0.018	0.054	
17.175	0.296	0.048	
17.180	-0.084	0.060	
17.185	-0.086	0.057	
17.190	0.278	0.046	
17.195	0.003	0.054	
17.200	-0.161	0.053	
17.205	0.149	0.036	
17.210	0.142	0.033	
17.215	-0.185	0.037	
17.220	-0.037	0.020	
17.225	0.275	0.009	
17.230	-0.097	0.021	
17.235	-0.106	0.022	
17.240	0.281	0.017	
17.245	0.032	0.034	
17.250	-0.158	0.045	
17.255	0.163	0.036	
17.260	0.204	0.043	
17.265	-0.147	0.057	
17.270	0.047	0.052	
17.275	0.362	0.054	
17.280	-0.055	0.078	
17.285	-0.083	0.083	
17.290	0.325	0.075	
17.295	0.088	0.088	
17.300	-0.129	0.095	
17.305	0.201	0.082	
17.310	0.241	0.085	
17.315	-0.126	0.096	
17.320	0.018	0.084	
17.325	0.275	0.071	
17.330	-0.107	0.073	
17.335	-0.156	0.056	
17.340	0.186	0.027	
17.345	-0.054	0.015	
17.350	-0.231	-0.001	
17.355	0.047	-0.030	
17.360	0.053	-0.043	
17.365	-0.243	-0.045	
17.370	-0.097	-0.062	
17.375	0.169	-0.072	
17.380	-0.155	-0.059	
17.385	-0.177	-0.057	
17.390	0.116	-0.063	
17.395	-0.077	-0.056	
17.400	-0.245	-0.055	
17.405	0.047	-0.068	
17.410	0.154	-0.062	
17.415	-0.159	-0.039	
17.420	0.073	-0.024	
17.425	0.463	0.008	
17.430	-0.005	0.068	
17.435	-0.100	0.102	
17.440	0.224	0.100	
17.445	-0.048	0.095	
17.450	-0.236	0.070	
17.455	0.029	0.022	
17.460	0.049	-0.011	
17.465	-0.225	-0.030	
17.470	-0.054	-0.055	
17.475	0.252	-0.061	
17.480	-0.104	-0.036	
17.485	-0.130	-0.022	
17.490	0.236	-0.016	
17.495	0.024	0.006	
17.500	-0.177	0.021	
17.505	0.145	0.016	
17.510	0.212	0.025	
17.515	-0.142	0.045	
17.520	-0.005	0.043	
17.525	0.281	0.040	
17.530	-0.112	0.051	
17.535	-0.144	0.044	
17.540	0.236	0.024	
17.545	0.013	0.026	
17.550	-0.173	0.026	
17.555	0.160	0.014	
17.560	0.226	0.022	
17.565	-0.153	0.043	
17.570	-0.000	0.042	
17.575	0.334	0.042	
17.580	-0.061	0.062	
17.585	-0.086	0.067	
17.590	0.293	0.059	
17.595	0.064	0.071	
17.600	-0.142	0.076	
17.605	0.177	0.063	
17.610	0.220	0.064	
17.615	-0.139	0.075	
17.620	0.003	0.064	
17.625	0.331	0.056	
17.630	-0.058	0.070	
17.635	-0.097	0.069	
17.640	0.318	0.059	
17.645	0.064	0.071	
17.650	-0.162	0.077	
17.655	0.146	0.060	
17.660	0.195	0.056	
17.665	-0.145	0.062	
17.670	0.013	0.049	
17.675	0.327	0.044	
17.680	-0.060	0.061	
17.685	-0.090	0.063	
17.690	0.305	0.056	
17.695	0.111	0.071	
17.700	-0.118	0.084	
17.705	0.183	0.078	
17.710	0.263	0.084	
17.715	-0.107	0.099	
17.720	0.038	0.092	
17.725	0.368	0.087	
17.730	-0.008	0.104	
17.735	-0.060	0.107	
17.740	0.327	0.097	
17.745	0.055	0.105	
17.750	-0.184	0.101	
17.755	0.079	0.069	
17.760	0.146	0.047	
17.765	-0.194	0.035	
17.770	-0.063	0.009	
17.775	0.224	-0.010	
17.780	-0.122	-0.005	
17.785	-0.156	-0.010	
17.790	0.212	-0.021	
17.795	0.015	-0.009	
17.800	-0.214	-0.001	
17.805	0.046	-0.013	
17.810	0.140	-0.016	
17.815	-0.184	-0.008	
17.820	-0.043	-0.015	
17.825	0.321	-0.013	
17.830	-0.014	0.017	
17.835	-0.038	0.040	
17.840	0.435	0.060	
17.845	0.273	0.110	
17.850	-0.066	0.156	
17.855	0.218	0.167	
17.860	0.186	0.167	
17.865	-0.197	0.154	
17.870	-0.089	0.106	
17.875	0.203	0.055	
17.880	-0.113	0.029	
17.885	-0.147	0.003	
17.890	0.246	-0.018	
17.895	0.026	-0.008	
17.900	-0.207	0.003	
17.905	0.055	-0.008	
17.910	0.180	-0.008	
17.915	-0.158	0.006	
17.920	-0.043	0.003	
17.925	0.285	0.003	
17.930	-0.074	0.023	
17.935	-0.116	0.030	
17.940	0.269	0.026	
17.945	0.070	0.042	
17.950	-0.148	0.054	
17.955	0.191	0.048	
17.960	0.266	0.060	
17.965	-0.130	0.081	
17.970	-0.025	0.076	
17.975	0.290	0.065	
17.980	-0.066	0.070	
17.985	-0.115	0.061	
17.990	0.273	0.045	
17.995	0.125	0.054	
18.000	-0.147	0.066	
18.005	0.165	0.060	
18.010	0.276	0.067	
18.015	-0.116	0.085	
18.020	0.004	0.081	
18.025	0.350	0.075	
18.030	-0.043	0.089	
18.035	-0.116	0.086	
18.040	0.252	0.068	
18.045	0.052	0.066	
18.050	-0.173	0.062	
18.055	0.110	0.040	
18.060	0.218	0.034	
18.065	-0.133	0.044	
18.070	-0.006	0.038	
18.075	0.313	0.036	
18.080	-0.051	0.054	
18.085	-0.127	0.057	
18.090	0.250	0.046	
18.095	0.061	0.052	
18.100	-0.179	0.054	
18.105	0.096	0.036	
18.110	0.227	0.031	
18.115	-0.145	0.042	
18.120	-0.016	0.036	
18.125	0.348	0.034	
18.130	-0.031	0.057	
18.135	-0.109	0.066	
18.140	0.272	0.059	
18.145	0.091	0.069	
18.150	-0.159	0.075	
18.155	0.124	0.059	
18.160	0.263	0.057	
18.165	-0.133	0.069	
18.170	-0.040	0.060	
18.175	0.275	0.047	
18.180	-0.098	0.051	
18.185	-0.164	0.040	
18.190	0.175	0.015	
18.195	-0.002	0.009	
18.200	-0.219	0.002	
18.205	0.007	-0.022	
18.210	0.130	-0.033	
18.215	-0.203	-0.029	
18.220	-0.107	-0.040	
18.225	0.197	-0.048	
18.230	-0.101	-0.035	
18.235	-0.176	-0.030	
18.240	0.122	-0.037	
18.245	-0.005	-0.031	
18.250	-0.188	-0.026	
18.255	0.159	-0.029	
18.260	0.392	-0.001	
18.265	-0.016	0.056	
18.270	0.094	0.094	
18.275	0.403	0.123	
18.280	-0.054	0.153	
18.285	-0.164	0.146	
18.290	0.140	0.104	
18.295	-0.016	0.069	
18.300	-0.225	0.034	
18.305	0.018	-0.010	
18.310	0.159	-0.032	
18.315	-0.188	-0.029	
18.320	-0.101	-0.038	
18.325	0.230	-0.042	
18.330	-0.097	-0.024	
18.335	-0.165	-0.017	
18.340	0.189	-0.021	
18.345	0.061	-0.007	
18.350	-0.188	0.007	
18.355	0.039	0.000	
18.360	0.162	-0.001	
18.365	-0.164	0.008	
18.370	-0.080	-0.001	
18.375	0.230	-0.009	
18.380	-0.089	0.002	
18.385	-0.159	0.002	
18.390	0.195	-0.008	
18.395	0.046	0.001	
18.400	-0.174	0.011	
18.405	0.076	0.003	
18.410	0.209	0.007	
18.415	-0.156	0.024	
18.420	-0.058	0.020	
18.425	0.313	0.016	
18.430	-0.058	0.035	
18.435	-0.144	0.040	
18.440	0.189	0.028	
18.445	0.050	0.030	
18.450	-0.196	0.030	
18.455	0.042	0.010	
18.460	0.208	0.003	
18.465	-0.167	0.013	
18.470	-0.093	0.005	
18.475	0.233	-0.005	
18.480	-0.083	0.004	
18.485	-0.181	0.003	
18.490	0.134	-0.013	
18.495	0.003	-0.014	
18.500	-0.236	-0.016	
18.505	-0.019	-0.037	
18.510	0.154	-0.046	
18.515	-0.197	-0.037	
18.520	-0.130	-0.043	
18.525	0.175	-0.051	
18.530	-0.109	-0.041	
18.535	-0.199	-0.039	
18.540	0.174	-0.046	
18.545	0.076	-0.031	
18.550	-0.205	-0.012	
18.555	0.032	-0.015	
18.560	0.197	-0.011	
18.565	-0.156	0.006	
18.570	-0.086	0.004	
18.575	0.249	-0.002	
18.580	-0.077	0.011	
18.585	-0.177	0.012	
18.590	0.130	-0.004	
18.595	0.012	-0.007	
18.600	-0.260	-0.012	
18.605	-0.051	-0.038	
18.610	0.099	-0.056	
18.615	-0.205	-0.057	
18.620	-0.150	-0.068	
18.625	0.142	-0.078	
18.630	-0.142	-0.069	
18.635	-0.234	-0.069	
18.640	0.081	-0.081	
18.645	-0.020	-0.076	
18.650	-0.269	-0.070	
18.655	-0.071	-0.083	
18.660	0.059	-0.091	
18.665	-0.226	-0.086	
18.670	-0.139	-0.092	
18.675	0.253	-0.090	
18.680	-0.017	-0.056	
18.685	-0.060	-0.022	
18.690	0.438	0.013	
18.695	0.253	0.077	
18.700	-0.135	0.132	
18.705	0.027	0.135	
18.710	0.134	0.114	
18.715	-0.222	0.086	
18.720	-0.159	0.035	
18.725	0.143	-0.015	
18.730	-0.147	-0.038	
18.735	-0.231	-0.060	
18.740	0.072	-0.084	
18.745	-0.026	-0.086	
18.750	-0.246	-0.081	
18.755	-0.008	-0.088	
18.760	0.143	-0.081	
18.765	-0.185	-0.058	
18.770	-0.107	-0.052	
18.775	0.227	-0.047	
18.780	-0.078	-0.023	
18.785	-0.182	-0.013	
18.790	0.134	-0.019	
18.795	0.029	-0.014	
18.800	-0.225	-0.010	
18.805	0.009	-0.025	
18.810	0.204	-0.028	
18.815	-0.144	-0.012	
18.820	-0.072	-0.009	
18.825	0.278	-0.006	
18.830	-0.049	0.016	
18.835	-0.164	0.025	
18.840	0.220	0.018	
18.845	0.156	0.030	
18.850	-0.161	0.048	
18.855	0.084	0.044	
18.860	0.287	0.048	
18.865	-0.121	0.065	
18.870	-0.054	0.062	
18.875	0.308	0.052	
18.880	-0.026	0.063	
18.885	-0.152	0.061	
18.890	0.206	0.043	
18.895	0.078	0.042	
18.900	-0.200	0.041	
18.905	0.023	0.019	
18.910	0.192	0.007	
18.915	-0.162	0.011	
18.920	-0.112	-0.001	
18.925	0.217	-0.014	
18.930	-0.084	-0.007	
18.935	-0.196	-0.009	
18.940	0.130	-0.024	
18.945	0.062	-0.022	
18.950	-0.196	-0.014	
18.955	0.030	-0.021	
18.960	0.264	-0.015	
18.965	-0.110	0.012	
18.970	-0.022	0.024	
18.975	0.334	0.033	
18.980	-0.011	0.061	
18.985	-0.126	0.072	
18.990	0.244	0.064	
18.995	0.114	0.070	
19.000	-0.181	0.073	
19.005	0.068	0.053	
19.010	0.272	0.044	
19.015	-0.144	0.053	
19.020	-0.098	0.042	
19.025	0.217	0.024	
19.030	-0.101	0.021	
19.035	-0.219	0.006	
19.040	0.073	-0.024	
19.045	0.003	-0.037	
19.050	-0.236	-0.044	
19.055	-0.060	-0.064	
19.060	0.127	-0.072	
19.065	-0.199	-0.063	
19.070	-0.138	-0.066	
19.075	0.212	-0.067	
19.080	-0.074	-0.046	
19.085	-0.214	-0.034	
19.090	0.084	-0.041	
19.095	0.012	-0.038	
19.100	-0.219	-0.035	
19.105	0.067	-0.044	
19.110	0.408	-0.025	
19.115	0.038	0.031	
19.120	0.096	0.080	
19.125	0.452	0.121	
19.130	-0.005	0.164	
19.135	-0.187	0.167	
19.140	0.093	0.125	
19.145	0.001	0.081	
19.150	-0.251	0.037	
19.155	-0.043	-0.016	
19.160	0.151	-0.048	
19.165	-0.162	-0.050	
19.170	-0.109	-0.055	
19.175	0.233	-0.054	
19.180	-0.063	-0.030	
19.185	-0.187	-0.016	
19.190	0.156	-0.019	
19.195	0.097	-0.007	
19.200	-0.179	0.008	
19.205	0.047	0.004	
19.210	0.290	0.011	
19.215	-0.124	0.036	
19.220	-0.086	0.039	
19.225	0.267	0.032	
19.230	-0.040	0.042	
19.235	-0.176	0.039	
19.240	0.163	0.020	
19.245	0.091	0.018	
19.250	-0.188	0.021	
19.255	0.042	0.008	
19.260	0.278	0.008	
19.265	-0.106	0.029	
19.270	-0.048	0.035	
19.275	0.336	0.038	
19.280	0.021	0.062	
19.285	-0.126	0.074	
19.290	0.250	0.067	
19.295	0.174	0.077	
19.300	-0.159	0.088	
19.305	0.072	0.073	
19.310	0.285	0.065	
19.315	-0.122	0.073	
19.320	-0.090	0.061	
19.325	0.279	0.043	
19.330	-0.026	0.046	
19.335	-0.153	0.043	
19.340	0.181	0.026	
19.345	0.133	0.029	
19.350	-0.170	0.038	
19.355	0.044	0.028	
19.360	0.267	0.026	
19.365	-0.119	0.042	
19.370	-0.095	0.039	
19.375	0.295	0.029	
19.380	-0.000	0.042	
19.385	-0.136	0.048	
19.390	0.230	0.040	
19.395	0.175	0.052	
19.400	-0.165	0.067	
19.405	0.076	0.059	
19.410	0.301	0.057	
19.415	-0.090	0.073	
19.420	-0.055	0.070	
19.425	0.328	0.062	
19.430	0.026	0.075	
19.435	-0.152	0.078	
19.440	0.169	0.060	
19.445	0.113	0.054	
19.450	-0.194	0.051	
19.455	-0.022	0.026	
19.460	0.171	0.006	
19.465	-0.168	0.002	
19.470	-0.136	-0.014	
19.475	0.181	-0.032	
19.480	-0.083	-0.028	
19.485	-0.211	-0.030	
19.490	0.097	-0.044	
19.495	0.097	-0.039	
19.500	-0.197	-0.025	
19.505	-0.029	-0.029	
19.510	0.185	-0.028	
19.515	-0.158	-0.015	
19.520	-0.113	-0.016	
19.525	0.295	-0.018	
19.530	0.059	0.009	
19.535	-0.078	0.036	
19.540	0.350	0.054	
19.545	0.296	0.096	
19.550	-0.135	0.136	
19.555	0.017	0.132	
19.560	0.227	0.112	
19.565	-0.138	0.097	
19.570	-0.132	0.063	
19.575	0.224	0.027	
19.580	-0.011	0.018	
19.585	-0.150	0.013	
19.590	0.169	0.001	
19.595	0.139	0.011	
19.600	-0.171	0.026	
19.605	0.024	0.020	
19.610	0.281	0.021	
19.615	-0.095	0.040	
19.620	-0.069	0.043	
19.625	0.307	0.040	
19.630	0.024	0.057	
19.635	-0.124	0.066	
19.640	0.238	0.059	
19.645	0.209	0.070	
19.650	-0.124	0.087	
19.655	0.137	0.084	
19.660	0.369	0.091	
19.665	-0.042	0.116	
19.670	-0.025	0.119	
19.675	0.379	0.112	
19.680	0.073	0.125	
19.685	-0.121	0.127	
19.690	0.246	0.108	
19.695	0.249	0.107	
19.700	-0.118	0.116	
19.705	0.094	0.104	
19.710	0.366	0.099	
19.715	-0.038	0.115	
19.720	-0.034	0.113	
19.725	0.365	0.103	
19.730	0.105	0.116	
19.735	-0.112	0.123	
19.740	0.227	0.108	
19.745	0.206	0.106	
19.750	-0.135	0.109	
19.755	0.073	0.091	
19.760	0.363	0.082	
19.765	-0.045	0.098	
19.770	-0.074	0.097	
19.775	0.319	0.084	
19.780	0.064	0.091	
19.785	-0.113	0.093	
19.790	0.221	0.080	
19.795	0.223	0.084	
19.800	-0.121	0.096	
19.805	0.075	0.086	
19.810	0.337	0.083	
19.815	-0.063	0.097	
19.820	-0.060	0.094	
19.825	0.321	0.081	
19.830	0.072	0.090	
19.835	-0.106	0.094	
19.840	0.253	0.084	
19.845	0.255	0.094	
19.850	-0.109	0.112	
19.855	0.087	0.105	
19.860	0.319	0.101	
19.865	-0.081	0.109	
19.870	-0.075	0.097	
19.875	0.278	0.076	
19.880	0.012	0.074	
19.885	-0.159	0.066	
19.890	0.145	0.042	
19.895	0.128	0.035	
19.900	-0.168	0.035	
19.905	-0.008	0.019	
19.910	0.267	0.012	
19.915	-0.101	0.025	
19.920	-0.098	0.026	
19.925	0.275	0.020	
19.930	0.009	0.035	
19.935	-0.164	0.042	
19.940	0.165	0.030	
19.945	0.211	0.036	
19.950	-0.095	0.055	
19.955	0.198	0.065	
19.960	0.551	0.096	
19.965	0.084	0.158	
19.970	-0.005	0.192	
19.975	0.339	0.193	
19.980	0.032	0.190	
19.985	-0.170	0.164	
19.990	0.105	0.112	
19.995	0.127	0.073	
20.000	-0.173	0.049	
20.005	-0.006	0.018	
20.010	0.292	0.004	
20.015	-0.078	0.020	
20.020	-0.075	0.026	
20.025	0.292	0.028	
20.030	0.044	0.049	
20.035	-0.136	0.061	
20.040	0.204	0.055	
20.045	0.227	0.065	
20.050	-0.115	0.083	
20.055	0.058	0.079	
20.060	0.325	0.078	
20.065	-0.055	0.093	
20.070	-0.060	0.090	
20.075	0.330	0.079	
20.080	0.090	0.091	
20.085	-0.127	0.098	
20.090	0.195	0.085	
20.095	0.243	0.086	
20.100	-0.116	0.097	
20.105	0.042	0.086	
20.110	0.321	0.079	
20.115	-0.048	0.090	
20.120	-0.071	0.086	
20.125	0.278	0.072	
20.130	0.029	0.076	
20.135	-0.155	0.072	
20.140	0.130	0.050	
20.145	0.157	0.042	
20.150	-0.161	0.043	
20.155	-0.017	0.028	
20.160	0.264	0.018	
20.165	-0.084	0.030	
20.170	-0.119	0.029	
20.175	0.188	0.017	
20.180	-0.020	0.019	
20.185	-0.184	0.014	
20.190	0.096	-0.004	
20.195	0.136	-0.005	
20.200	-0.174	0.004	
20.205	-0.037	-0.004	
20.210	0.227	-0.008	
20.215	-0.119	0.005	
20.220	-0.126	0.004	
20.225	0.240	-0.003	
20.230	0.001	0.011	
20.235	-0.182	0.018	
20.240	0.114	0.007	
20.245	0.149	0.009	
20.250	-0.177	0.019	
20.255	-0.034	0.010	
20.260	0.243	0.003	
20.265	-0.104	0.015	
20.270	-0.135	0.014	
20.275	0.195	0.002	
20.280	-0.025	0.007	
20.285	-0.213	0.005	
20.290	0.032	-0.016	
20.295	0.067	-0.028	
20.300	-0.219	-0.030	
20.305	-0.078	-0.047	
20.310	0.130	-0.058	
20.315	-0.179	-0.052	
20.320	-0.205	-0.060	
20.325	0.082	-0.076	
20.330	-0.095	-0.076	
20.335	-0.243	-0.078	
20.340	-0.025	-0.093	
20.345	0.004	-0.096	
20.350	-0.252	-0.093	
20.355	-0.129	-0.103	
20.360	0.070	-0.109	
20.365	-0.182	-0.100	
20.370	-0.194	-0.099	
20.375	0.204	-0.098	
20.380	0.079	-0.065	
20.385	-0.098	-0.025	
20.390	0.204	0.003	
20.395	0.149	0.038	
20.400	-0.220	0.061	
20.405	-0.119	0.042	
20.410	0.047	0.006	
20.415	-0.210	-0.024	
20.420	-0.237	-0.062	
20.425	0.024	-0.100	
20.430	-0.113	-0.114	
20.435	-0.280	-0.122	
20.440	-0.046	-0.137	
20.445	-0.006	-0.136	
20.450	-0.249	-0.125	
20.455	-0.126	-0.126	
20.460	0.116	-0.120	
20.465	-0.159	-0.098	
20.470	-0.193	-0.087	
20.475	0.090	-0.087	
20.480	-0.068	-0.074	
20.485	-0.243	-0.068	
20.490	-0.011	-0.078	
20.495	0.036	-0.079	
20.500	-0.219	-0.073	
20.505	-0.084	-0.078	
20.510	0.142	-0.078	
20.515	-0.153	-0.061	
20.520	-0.171	-0.057	
20.525	0.156	-0.060	
20.530	-0.034	-0.046	
20.535	-0.229	-0.037	
20.540	0.026	-0.047	
20.545	0.081	-0.048	
20.550	-0.203	-0.040	
20.555	-0.087	-0.048	
20.560	0.166	-0.053	
20.565	-0.142	-0.041	
20.570	-0.177	-0.041	
20.575	0.108	-0.051	
20.580	-0.081	-0.049	
20.585	-0.254	-0.053	
20.590	-0.025	-0.074	
20.595	0.004	-0.084	
20.600	-0.258	-0.086	
20.605	-0.138	-0.101	
20.610	0.058	-0.112	
20.615	-0.197	-0.107	
20.620	-0.223	-0.110	
20.625	0.050	-0.119	
20.630	-0.075	-0.111	
20.635	-0.258	-0.103	
20.640	-0.031	-0.108	
20.645	0.017	-0.105	
20.650	-0.246	-0.096	
20.655	-0.119	-0.101	
20.660	0.084	-0.103	
20.665	-0.174	-0.091	
20.670	-0.197	-0.090	
20.675	0.073	-0.095	
20.680	-0.077	-0.086	
20.685	-0.249	-0.081	
20.690	-0.031	-0.092	
20.695	0.029	-0.093	
20.700	-0.251	-0.087	
20.705	-0.136	-0.096	
20.710	0.085	-0.103	
20.715	-0.200	-0.095	
20.720	-0.254	-0.100	
20.725	0.013	-0.116	
20.730	-0.119	-0.118	
20.735	-0.298	-0.122	
20.740	-0.100	-0.139	
20.745	-0.055	-0.147	
20.750	-0.298	-0.147	
20.755	-0.185	-0.159	
20.760	0.032	-0.165	
20.765	-0.216	-0.153	
20.770	-0.251	-0.149	
20.775	-0.000	-0.152	
20.780	-0.122	-0.143	
20.785	-0.300	-0.137	
20.790	-0.072	-0.146	
20.795	0.032	-0.142	
20.800	-0.176	-0.123	
20.805	0.049	-0.103	
20.810	0.437	-0.058	
20.815	-0.006	0.017	
20.820	-0.122	0.065	
20.825	0.130	0.071	
20.830	-0.097	0.062	
20.835	-0.289	0.031	
20.840	-0.074	-0.025	
20.845	-0.006	-0.068	
20.850	-0.263	-0.093	
20.855	-0.148	-0.120	
20.860	0.090	-0.132	
20.865	-0.167	-0.120	
20.870	-0.219	-0.114	
20.875	0.087	-0.113	
20.880	-0.072	-0.097	
20.885	-0.260	-0.086	
20.890	-0.023	-0.093	
20.895	0.056	-0.091	
20.900	-0.232	-0.080	
20.905	-0.121	-0.084	
20.910	0.143	-0.086	
20.915	-0.138	-0.070	
20.920	-0.177	-0.063	
20.925	0.137	-0.065	
20.930	-0.037	-0.051	
20.935	-0.219	-0.042	
20.940	0.050	-0.049	
20.945	0.152	-0.042	
20.950	-0.165	-0.022	
20.955	-0.052	-0.019	
20.960	0.266	-0.014	
20.965	-0.074	0.010	
20.970	-0.135	0.019	
20.975	0.203	0.013	
20.980	0.010	0.021	
20.985	-0.185	0.023	
20.990	0.064	0.006	
20.995	0.156	0.001	
21.000	-0.171	0.008	
21.005	-0.042	-0.001	
21.010	0.240	-0.006	
21.015	-0.097	0.009	
21.020	-0.159	0.009	
21.025	0.174	-0.004	
21.030	-0.008	-0.001	
21.035	-0.213	-0.002	
21.040	0.058	-0.019	
21.045	0.192	-0.020	
21.050	-0.168	-0.004	
21.055	-0.063	-0.005	
21.060	0.230	-0.007	
21.065	-0.095	0.007	
21.070	-0.147	0.007	
21.075	0.209	-0.002	
21.080	0.029	0.008	
21.085	-0.210	0.014	
21.090	0.075	-0.000	
21.095	0.175	-0.002	
21.100	-0.165	0.010	
21.105	-0.055	0.004	
21.110	0.288	0.001	
21.115	-0.052	0.021	
21.120	-0.101	0.031	
21.125	0.281	0.031	
21.130	0.072	0.050	
21.135	-0.181	0.061	
21.140	0.091	0.047	
21.145	0.171	0.039	
21.150	-0.170	0.040	
21.155	-0.057	0.023	
21.160	0.226	0.007	
21.165	-0.130	0.011	
21.170	-0.202	-0.001	
21.175	0.149	-0.024	
21.180	-0.014	-0.027	
21.185	-0.219	-0.028	
21.190	0.056	-0.042	
21.195	0.172	-0.038	
21.200	-0.196	-0.019	
21.205	-0.103	-0.021	
21.210	0.163	-0.030	
21.215	-0.133	-0.024	
21.220	-0.162	-0.029	
21.225	0.226	-0.037	
21.230	0.137	-0.014	
21.235	-0.043	0.021	
21.240	0.421	0.056	
21.245	0.522	0.124	
21.250	-0.019	0.201	
21.255	0.035	0.226	
21.260	0.292	0.212	
21.265	-0.107	0.190	
21.270	-0.182	0.139	
21.275	0.143	0.073	
21.280	0.021	0.033	
21.285	-0.202	0.007	
21.290	0.058	-0.023	
21.295	0.172	-0.029	
21.300	-0.176	-0.016	
21.305	-0.068	-0.018	
21.310	0.240	-0.019	
21.315	-0.083	-0.001	
21.320	-0.156	0.004	
21.325	0.249	-0.001	
21.330	0.082	0.017	
21.335	-0.176	0.033	
21.340	0.085	0.026	
21.345	0.229	0.029	
21.350	-0.136	0.043	
21.355	-0.009	0.040	
21.360	0.380	0.041	
21.365	0.018	0.070	
21.370	-0.077	0.087	
21.375	0.314	0.087	
21.380	0.169	0.105	
21.385	-0.115	0.119	
21.390	0.188	0.110	
21.395	0.348	0.113	
21.400	-0.072	0.131	
21.405	0.033	0.127	
21.410	0.402	0.120	
21.415	0.033	0.134	
21.420	-0.060	0.135	
21.425	0.360	0.124	
21.430	0.186	0.134	
21.435	-0.112	0.143	
21.440	0.209	0.129	
21.445	0.345	0.128	
21.450	-0.071	0.143	
21.455	0.049	0.135	
21.460	0.397	0.126	
21.465	0.003	0.137	
21.470	-0.078	0.132	
21.475	0.330	0.114	
21.480	0.165	0.118	
21.485	-0.142	0.122	
21.490	0.157	0.103	
21.495	0.302	0.097	
21.500	-0.101	0.106	
21.505	-0.002	0.096	
21.510	0.379	0.086	
21.515	0.023	0.101	
21.520	-0.072	0.106	
21.525	0.354	0.099	
21.530	0.177	0.116	
21.535	-0.133	0.129	
21.540	0.192	0.116	
21.545	0.360	0.117	
21.550	-0.084	0.134	
21.555	0.006	0.126	
21.560	0.328	0.111	
21.565	-0.029	0.113	
21.570	-0.118	0.099	
21.575	0.244	0.074	
21.580	0.108	0.069	
21.585	-0.170	0.068	
21.590	0.065	0.047	
21.595	0.204	0.036	
21.600	-0.152	0.038	
21.605	-0.061	0.025	
21.610	0.252	0.013	
21.615	-0.074	0.022	
21.620	-0.141	0.020	
21.625	0.235	0.010	
21.630	0.105	0.023	
21.635	-0.170	0.038	
21.640	0.073	0.031	
21.645	0.229	0.031	
21.650	-0.126	0.044	
21.655	-0.008	0.041	
21.660	0.443	0.046	
21.665	0.189	0.089	
21.670	0.142	0.138	
21.675	0.594	0.186	
21.680	0.327	0.252	
21.685	-0.115	0.290	
21.690	0.078	0.263	
21.695	0.178	0.212	
21.700	-0.168	0.159	
21.705	-0.080	0.093	
21.710	0.292	0.042	
21.715	-0.042	0.030	
21.720	-0.132	0.022	
21.725	0.255	0.012	
21.730	0.122	0.028	
21.735	-0.164	0.046	
21.740	0.104	0.042	
21.745	0.272	0.046	
21.750	-0.110	0.065	
21.755	-0.013	0.064	
21.760	0.359	0.062	
21.765	-0.009	0.082	
21.770	-0.103	0.087	
21.775	0.288	0.077	
21.780	0.156	0.087	
21.785	-0.133	0.097	
21.790	0.140	0.086	
21.795	0.311	0.086	
21.800	-0.092	0.101	
21.805	0.009	0.096	
21.810	0.386	0.090	
21.815	0.024	0.108	
21.820	-0.072	0.113	
21.825	0.339	0.105	
21.830	0.209	0.119	
21.835	-0.112	0.134	
21.840	0.189	0.125	
21.845	0.305	0.123	
21.850	-0.097	0.132	
21.855	-0.011	0.117	
21.860	0.372	0.100	
21.865	-0.017	0.106	
21.870	-0.112	0.100	
21.875	0.281	0.080	
21.880	0.168	0.084	
21.885	-0.142	0.093	
21.890	0.139	0.081	
21.895	0.310	0.080	
21.900	-0.090	0.096	
21.905	-0.017	0.091	
21.910	0.333	0.082	
21.915	-0.029	0.091	
21.920	-0.133	0.085	
21.925	0.208	0.062	
21.930	0.091	0.057	
21.935	-0.164	0.054	
21.940	0.119	0.037	
21.945	0.301	0.040	
21.950	-0.104	0.062	
21.955	-0.043	0.064	
21.960	0.334	0.059	
21.965	0.001	0.075	
21.970	-0.098	0.080	
21.975	0.287	0.072	
21.980	0.168	0.084	
21.985	-0.141	0.097	
21.990	0.104	0.085	
21.995	0.259	0.078	
22.000	-0.126	0.084	
22.005	-0.060	0.068	
22.010	0.296	0.051	
22.015	-0.045	0.055	
22.020	-0.168	0.049	
22.025	0.152	0.026	
22.030	0.042	0.019	
22.035	-0.210	0.013	
22.040	0.006	-0.010	
22.045	0.159	-0.021	
22.050	-0.158	-0.015	
22.055	-0.092	-0.020	
22.060	0.250	-0.024	
22.065	-0.068	-0.005	
22.070	-0.187	0.002	
22.075	0.142	-0.009	
22.080	0.104	-0.004	
22.085	-0.129	0.010	
22.090	0.244	0.019	
22.095	0.510	0.060	
22.100	-0.005	0.127	
22.105	-0.000	0.160	
22.110	0.313	0.161	
22.115	-0.046	0.158	
22.120	-0.194	0.129	
22.125	0.084	0.075	
22.130	-0.031	0.031	
22.135	-0.225	-0.005	
22.140	-0.008	-0.044	
22.145	0.159	-0.059	
22.150	-0.170	-0.049	
22.155	-0.098	-0.048	
22.160	0.230	-0.045	
22.165	-0.055	-0.021	
22.170	-0.155	-0.007	
22.175	0.198	-0.006	
22.180	0.104	0.011	
22.185	-0.162	0.029	
22.190	0.056	0.025	
22.195	0.233	0.026	
22.200	-0.126	0.041	
22.205	-0.066	0.037	
22.210	0.273	0.028	
22.215	-0.040	0.039	
22.220	-0.139	0.040	
22.225	0.232	0.029	
22.230	0.143	0.040	
22.235	-0.152	0.055	
22.240	0.110	0.050	
22.245	0.331	0.056	
22.250	-0.069	0.082	
22.255	-0.017	0.087	
22.260	0.385	0.087	
22.265	0.033	0.107	
22.270	-0.115	0.113	
22.275	0.250	0.097	
22.280	0.160	0.097	
22.285	-0.144	0.098	
22.290	0.114	0.080	
22.295	0.269	0.073	
22.300	-0.118	0.081	
22.305	-0.058	0.068	
22.310	0.318	0.053	
22.315	-0.000	0.063	
22.320	-0.138	0.064	
22.325	0.185	0.049	
22.330	0.120	0.048	
22.335	-0.159	0.052	
22.340	0.059	0.037	
22.345	0.288	0.035	
22.350	-0.107	0.051	
22.355	-0.071	0.050	
22.360	0.264	0.041	
22.365	-0.042	0.048	
22.370	-0.147	0.044	
22.375	0.212	0.029	
22.380	0.154	0.036	
22.385	-0.150	0.049	
22.390	0.076	0.044	
22.395	0.299	0.047	
22.400	-0.095	0.067	
22.405	-0.046	0.067	
22.410	0.339	0.062	
22.415	0.012	0.077	
22.420	-0.145	0.081	
22.425	0.151	0.062	
22.430	0.070	0.051	
22.435	-0.188	0.042	
22.440	0.003	0.015	
22.445	0.171	-0.001	
22.450	-0.148	-0.000	
22.455	-0.115	-0.011	
22.460	0.201	-0.022	
22.465	-0.069	-0.013	
22.470	-0.176	-0.012	
22.475	0.120	-0.023	
22.480	0.030	-0.020	
22.485	-0.223	-0.016	
22.490	-0.034	-0.033	
22.495	0.180	-0.040	
22.500	-0.132	-0.027	
22.505	-0.071	-0.023	
22.510	0.357	-0.013	
22.515	0.104	0.029	
22.520	-0.052	0.068	
22.525	0.316	0.089	
22.530	0.152	0.117	
22.535	-0.202	0.128	
22.540	-0.029	0.097	
22.545	0.128	0.058	
22.550	-0.170	0.031	
22.555	-0.124	-0.004	
22.560	0.211	-0.030	
22.565	-0.045	-0.025	
22.570	-0.173	-0.021	
22.575	0.160	-0.025	
22.580	0.116	-0.011	
22.585	-0.188	0.008	
22.590	0.007	0.004	
22.595	0.226	0.004	
22.600	-0.127	0.018	
22.605	-0.095	0.016	
22.610	0.230	0.008	
22.615	-0.035	0.018	
22.620	-0.161	0.020	
22.625	0.192	0.009	
22.630	0.142	0.019	
22.635	-0.173	0.034	
22.640	0.036	0.028	
22.645	0.279	0.028	
22.650	-0.098	0.046	
22.655	-0.061	0.047	
22.660	0.336	0.044	
22.665	0.042	0.065	
22.670	-0.124	0.077	
22.675	0.241	0.070	
22.680	0.208	0.080	
22.685	-0.135	0.094	
22.690	0.085	0.085	
22.695	0.307	0.080	
22.700	-0.081	0.092	
22.705	-0.100	0.083	
22.710	0.258	0.062	
22.715	-0.019	0.058	
22.720	-0.177	0.048	
22.725	0.139	0.023	
22.730	0.104	0.016	
22.735	-0.185	0.017	
22.740	0.009	0.003	
22.745	0.247	-0.001	
22.750	-0.100	0.016	
22.755	-0.083	0.019	
22.760	0.247	0.017	
22.765	-0.031	0.030	
22.770	-0.148	0.033	
22.775	0.114	0.018	
22.780	0.079	0.015	
22.785	-0.190	0.014	
22.790	0.015	-0.002	
22.795	0.269	-0.004	
22.800	-0.090	0.017	
22.805	-0.077	0.024	
22.810	0.290	0.026	
22.815	0.012	0.045	
22.820	-0.133	0.055	
22.825	0.203	0.047	
22.830	0.166	0.055	
22.835	-0.173	0.065	
22.840	-0.002	0.050	
22.845	0.238	0.036	
22.850	-0.116	0.039	
22.855	-0.121	0.028	
22.860	0.208	0.010	
22.865	-0.054	0.011	
22.870	-0.197	0.005	
22.875	0.085	-0.016	
22.880	0.067	-0.021	
22.885	-0.196	-0.019	
22.890	-0.019	-0.030	
22.895	0.160	-0.033	
22.900	-0.159	-0.022	
22.905	-0.129	-0.026	
22.910	0.181	-0.034	
22.915	-0.045	-0.023	
22.920	-0.176	-0.017	
22.925	0.131	-0.023	
22.930	0.174	-0.010	
22.935	-0.101	0.016	
22.940	0.241	0.035	
22.945	0.524	0.080	
22.950	-0.011	0.146	
22.955	-0.090	0.171	
22.960	0.185	0.151	
22.965	-0.078	0.123	
22.970	-0.211	0.078	
22.975	0.073	0.021	
22.980	0.056	-0.011	
22.985	-0.214	-0.026	
22.990	-0.060	-0.048	
22.995	0.156	-0.059	
23.000	-0.152	-0.048	
23.005	-0.141	-0.048	
23.010	0.162	-0.051	
23.015	-0.074	-0.038	
23.020	-0.202	-0.034	
23.025	0.068	-0.044	
23.030	0.070	-0.041	
23.035	-0.200	-0.031	
23.040	-0.023	-0.037	
23.045	0.201	-0.035	
23.050	-0.150	-0.017	
23.055	-0.138	-0.016	
23.060	0.208	-0.023	
23.065	-0.048	-0.011	
23.070	-0.188	-0.007	
23.075	0.119	-0.018	
23.080	0.101	-0.013	
23.085	-0.184	-0.002	
23.090	-0.013	-0.009	
23.095	0.243	-0.009	
23.100	-0.101	0.010	
23.105	-0.097	0.014	
23.110	0.255	0.012	
23.115	-0.006	0.028	
23.120	-0.171	0.034	
23.125	0.119	0.020	
23.130	0.149	0.019	
23.135	-0.196	0.025	
23.140	-0.054	0.010	
23.145	0.177	-0.005	
23.150	-0.153	-0.005	
23.155	-0.136	-0.016	
23.160	0.177	-0.030	
23.165	-0.063	-0.024	
23.170	-0.216	-0.025	
23.175	0.061	-0.040	
23.180	0.064	-0.042	
23.185	-0.213	-0.036	
23.190	-0.045	-0.045	
23.195	0.174	-0.047	
23.200	-0.152	-0.033	
23.205	-0.133	-0.031	
23.210	0.185	-0.036	
23.215	-0.061	-0.023	
23.220	-0.202	-0.019	
23.225	0.105	-0.030	
23.230	0.113	-0.025	
23.235	-0.184	-0.011	
23.240	-0.016	-0.014	
23.245	0.230	-0.012	
23.250	-0.129	0.005	
23.255	-0.152	0.005	
23.260	0.146	-0.010	
23.265	-0.068	-0.011	
23.270	-0.225	-0.020	
23.275	0.006	-0.044	
23.280	0.018	-0.057	
23.285	-0.239	-0.062	
23.290	-0.098	-0.078	
23.295	0.091	-0.088	
23.300	-0.193	-0.081	
23.305	-0.196	-0.086	
23.310	0.079	-0.095	
23.315	-0.100	-0.089	
23.320	-0.234	-0.086	
23.325	0.032	-0.093	
23.330	0.050	-0.085	
23.335	-0.231	-0.070	
23.340	-0.081	-0.072	
23.345	0.152	-0.071	
23.350	-0.124	-0.053	
23.355	-0.061	-0.042	
23.360	0.455	-0.019	
23.365	0.215	0.045	
23.370	-0.083	0.105	
23.375	0.185	0.126	
23.380	0.091	0.131	
23.385	-0.234	0.115	
23.390	-0.113	0.063	
23.395	0.108	0.010	
23.400	-0.170	-0.021	
23.405	-0.173	-0.051	
23.410	0.113	-0.075	
23.415	-0.089	-0.075	
23.420	-0.231	-0.074	
23.425	0.039	-0.084	
23.430	0.061	-0.078	
23.435	-0.220	-0.063	
23.440	-0.071	-0.065	
23.445	0.166	-0.063	
23.450	-0.156	-0.045	
23.455	-0.158	-0.042	
23.460	0.172	-0.047	
23.465	-0.035	-0.033	
23.470	-0.194	-0.025	
23.475	0.076	-0.032	
23.480	0.116	-0.026	
23.485	-0.181	-0.013	
23.490	-0.006	-0.015	
23.495	0.269	-0.010	
23.500	-0.113	0.013	
23.505	-0.118	0.019	
23.510	0.258	0.014	
23.515	0.018	0.028	
23.520	-0.168	0.036	
23.525	0.128	0.024	
23.530	0.133	0.024	
23.535	-0.176	0.030	
23.540	-0.006	0.017	
23.545	0.266	0.011	
23.550	-0.107	0.025	
23.555	-0.110	0.025	
23.560	0.244	0.016	
23.565	-0.009	0.026	
23.570	-0.184	0.028	
23.575	0.099	0.011	
23.580	0.114	0.006	
23.585	-0.190	0.009	
23.590	-0.032	-0.005	
23.595	0.233	-0.012	
23.600	-0.127	0.001	
23.605	-0.147	-0.000	
23.610	0.200	-0.011	
23.615	-0.025	-0.004	
23.620	-0.193	-0.002	
23.625	0.122	-0.014	
23.630	0.157	-0.007	
23.635	-0.179	0.009	
23.640	-0.016	0.005	
23.645	0.282	0.006	
23.650	-0.086	0.026	
23.655	-0.081	0.033	
23.660	0.272	0.031	
23.665	0.021	0.047	
23.670	-0.155	0.053	
23.675	0.130	0.039	
23.680	0.140	0.036	
23.685	-0.179	0.039	
23.690	-0.057	0.020	
23.695	0.177	0.002	
23.700	-0.148	-0.000	
23.705	-0.170	-0.015	
23.710	0.160	-0.034	
23.715	-0.057	-0.033	
23.720	-0.222	-0.035	
23.725	0.072	-0.049	
23.730	0.116	-0.045	
23.735	-0.203	-0.030	
23.740	-0.055	-0.033	
23.745	0.203	-0.034	
23.750	-0.138	-0.018	
23.755	-0.159	-0.018	
23.760	0.149	-0.028	
23.765	-0.051	-0.024	
23.770	-0.213	-0.025	
23.775	0.101	-0.039	
23.780	0.253	-0.027	
23.785	-0.061	0.009	
23.790	0.249	0.043	
23.795	0.551	0.097	
23.800	0.012	0.168	
23.805	-0.098	0.195	
23.810	0.211	0.173	
23.815	-0.034	0.144	
23.820	-0.237	0.098	
23.825	0.038	0.036	
23.830	0.108	-0.003	
23.835	-0.193	-0.019	
23.840	-0.040	-0.038	
23.845	0.249	-0.042	
23.850	-0.113	-0.020	
23.855	-0.150	-0.011	
23.860	0.197	-0.015	
23.865	-0.016	-0.004	
23.870	-0.197	0.001	
23.875	0.090	-0.011	
23.880	0.174	-0.008	
23.885	-0.141	0.008	
23.890	0.007	0.010	
23.895	0.285	0.017	
23.900	-0.081	0.040	
23.905	-0.103	0.045	
23.910	0.266	0.038	
23.915	0.058	0.050	
23.920	-0.142	0.058	
23.925	0.156	0.048	
23.930	0.230	0.052	
23.935	-0.127	0.067	
23.940	0.015	0.062	
23.945	0.321	0.058	
23.950	-0.055	0.073	
23.955	-0.080	0.073	
23.960	0.325	0.065	
23.965	0.094	0.079	
23.970	-0.142	0.089	
23.975	0.165	0.076	
23.980	0.229	0.075	
23.985	-0.148	0.082	
23.990	-0.008	0.067	
23.995	0.322	0.055	
24.000	-0.054	0.065	
24.005	-0.115	0.063	
24.010	0.250	0.049	
24.015	0.030	0.052	
24.020	-0.190	0.050	
24.025	0.090	0.027	
24.030	0.169	0.019	
24.035	-0.161	0.023	
24.040	-0.020	0.013	
24.045	0.281	0.010	
24.050	-0.077	0.028	
24.055	-0.101	0.032	
24.060	0.327	0.031	
24.065	0.111	0.055	
24.070	-0.126	0.077	
24.075	0.200	0.076	
24.080	0.285	0.087	
24.085	-0.115	0.107	
24.090	0.044	0.101	
24.095	0.356	0.095	
24.100	-0.032	0.108	
24.105	-0.097	0.103	
24.110	0.275	0.084	
24.115	0.033	0.082	
24.120	-0.181	0.073	
24.125	0.084	0.044	
24.130	0.146	0.028	
24.135	-0.184	0.023	
24.140	-0.063	0.004	
24.145	0.246	-0.009	
24.150	-0.115	0.000	
24.155	-0.161	-0.002	
24.160	0.166	-0.015	
24.165	-0.026	-0.012	
24.170	-0.229	-0.013	
24.175	0.050	-0.032	
24.180	0.133	-0.035	
24.185	-0.194	-0.024	
24.190	-0.087	-0.031	
24.195	0.208	-0.035	
24.200	-0.104	-0.021	
24.205	-0.115	-0.015	
24.210	0.345	-0.009	
24.215	0.270	0.035	
24.220	-0.028	0.089	
24.225	0.310	0.124	
24.230	0.308	0.160	
24.235	-0.129	0.184	
24.240	-0.052	0.163	
24.245	0.241	0.122	
24.250	-0.081	0.096	
24.255	-0.135	0.063	
24.260	0.230	0.029	
24.265	0.073	0.026	
24.270	-0.165	0.029	
24.275	0.113	0.019	
24.280	0.206	0.022	
24.285	-0.147	0.037	
24.290	-0.020	0.033	
24.295	0.321	0.031	
24.300	-0.032	0.051	
24.305	-0.075	0.060	
24.310	0.311	0.059	
24.315	0.105	0.078	
24.320	-0.121	0.091	
24.325	0.217	0.085	
24.330	0.287	0.094	
24.335	-0.116	0.112	
24.340	0.017	0.103	
24.345	0.363	0.093	
24.350	-0.020	0.104	
24.355	-0.083	0.101	
24.360	0.327	0.088	
24.365	0.168	0.099	
24.370	-0.124	0.111	
24.375	0.189	0.102	
24.380	0.316	0.104	
24.385	-0.074	0.121	
24.390	0.073	0.118	
24.395	0.414	0.117	
24.400	0.029	0.138	
24.405	-0.042	0.143	
24.410	0.333	0.131	
24.415	0.101	0.135	
24.420	-0.141	0.130	
24.425	0.171	0.103	
24.430	0.305	0.094	
24.435	-0.101	0.104	
24.440	0.018	0.095	
24.445	0.342	0.086	
24.450	-0.037	0.096	
24.455	-0.109	0.091	
24.460	0.276	0.073	
24.465	0.076	0.074	
24.470	-0.148	0.074	
24.475	0.156	0.057	
24.480	0.281	0.059	
24.485	-0.119	0.077	
24.490	-0.008	0.073	
24.495	0.336	0.067	
24.500	-0.011	0.081	
24.505	-0.060	0.085	
24.510	0.380	0.083	
24.515	0.197	0.108	
24.520	-0.104	0.131	
24.525	0.177	0.126	
24.530	0.296	0.125	
24.535	-0.086	0.134	
24.540	0.006	0.119	
24.545	0.336	0.102	
24.550	-0.054	0.103	
24.555	-0.126	0.090	
24.560	0.208	0.062	
24.565	0.024	0.051	
24.570	-0.193	0.040	
24.575	0.073	0.013	
24.580	0.197	0.005	
24.585	-0.153	0.014	
24.590	-0.043	0.009	
24.595	0.295	0.008	
24.600	-0.042	0.029	
24.605	-0.115	0.038	
24.610	0.238	0.034	
24.615	0.055	0.045	
24.620	-0.174	0.050	
24.625	0.116	0.035	
24.630	0.298	0.038	
24.635	-0.038	0.063	
24.640	0.149	0.081	
24.645	0.518	0.111	
24.650	0.050	0.162	
24.655	-0.103	0.181	
24.660	0.197	0.159	
24.665	0.006	0.132	
24.670	-0.213	0.095	
24.675	0.033	0.041	
24.680	0.172	0.008	
24.685	-0.167	0.000	
24.690	-0.077	-0.015	
24.695	0.236	-0.023	
24.700	-0.057	-0.007	
24.705	-0.129	0.001	
24.710	0.236	0.002	
24.715	0.090	0.022	
24.720	-0.155	0.040	
24.725	0.140	0.038	
24.730	0.287	0.049	
24.735	-0.109	0.073	
24.740	-0.014	0.074	
24.745	0.325	0.070	
24.750	-0.020	0.083	
24.755	-0.084	0.084	
24.760	0.282	0.073	
24.765	0.119	0.082	
24.770	-0.142	0.088	
24.775	0.142	0.074	
24.780	0.284	0.073	
24.785	-0.106	0.087	
24.790	0.001	0.081	
24.795	0.354	0.075	
24.800	0.001	0.091	
24.805	-0.090	0.094	
24.810	0.256	0.082	
24.815	0.110	0.085	
24.820	-0.156	0.086	
24.825	0.113	0.066	
24.830	0.301	0.062	
24.835	-0.101	0.076	
24.840	-0.031	0.072	
24.845	0.314	0.064	
24.850	-0.043	0.074	
24.855	-0.135	0.069	
24.860	0.203	0.049	
24.865	0.062	0.046	
24.870	-0.190	0.042	
24.875	0.047	0.020	
24.880	0.195	0.010	
24.885	-0.147	0.017	
24.890	-0.064	0.009	
24.895	0.243	0.002	
24.900	-0.080	0.014	
24.905	-0.176	0.013	
24.910	0.163	-0.002	
24.915	0.042	-0.000	
24.920	-0.217	0.002	
24.925	0.010	-0.015	
24.930	0.152	-0.022	
24.935	-0.168	-0.015	
24.940	-0.066	-0.020	
24.945	0.287	-0.020	
24.950	-0.034	0.006	
24.955	-0.136	0.021	
24.960	0.175	0.019	
24.965	0.009	0.025	
24.970	-0.222	0.022	
24.975	-0.017	-0.005	
24.980	0.119	-0.023	
24.985	-0.213	-0.028	
24.990	-0.148	-0.046	
24.995	0.127	-0.064	
25.000	-0.141	-0.063	
25.005	-0.223	-0.068	
25.010	0.065	-0.082	
25.015	-0.048	-0.080	
25.020	-0.246	-0.077	
25.025	-0.052	-0.089	
25.030	0.056	-0.092	
25.035	-0.205	-0.083	
25.040	-0.138	-0.086	
25.045	0.108	-0.089	
25.050	-0.138	-0.077	
25.055	-0.202	-0.073	
25.060	0.114	-0.078	
25.065	0.073	-0.061	
25.070	-0.139	-0.036	
25.075	0.116	-0.021	
25.080	0.192	0.003	
25.085	-0.207	0.028	
25.090	-0.174	0.017	
25.095	0.050	-0.015	
25.100	-0.171	-0.039	
25.105	-0.242	-0.069	
25.110	0.023	-0.100	
25.115	-0.040	-0.107	
25.120	-0.243	-0.105	
25.125	-0.029	-0.110	
25.130	0.091	-0.102	
25.135	-0.213	-0.082	
25.140	-0.136	-0.079	
25.145	0.162	-0.078	
25.150	-0.124	-0.060	
25.155	-0.214	-0.054	
25.160	0.068	-0.063	
25.165	-0.022	-0.061	
25.170	-0.223	-0.058	
25.175	-0.014	-0.068	
25.180	0.145	-0.065	
25.185	-0.190	-0.048	
25.190	-0.129	-0.047	
25.195	0.160	-0.051	
25.200	-0.101	-0.040	
25.205	-0.194	-0.038	
25.210	0.099	-0.048	
25.215	0.026	-0.043	
25.220	-0.203	-0.035	
25.225	-0.005	-0.042	
25.230	0.139	-0.041	
25.235	-0.176	-0.029	
25.240	-0.124	-0.033	
25.245	0.165	-0.041	
25.250	-0.106	-0.033	
25.255	-0.187	-0.033	
25.260	0.142	-0.043	
25.265	0.021	-0.034	
25.270	-0.226	-0.026	
25.275	-0.017	-0.037	
25.280	0.124	-0.043	
25.285	-0.182	-0.035	
25.290	-0.107	-0.041	
25.295	0.175	-0.046	
25.300	-0.116	-0.035	
25.305	-0.211	-0.035	
25.310	0.093	-0.049	
25.315	0.020	-0.047	
25.320	-0.217	-0.042	
25.325	-0.026	-0.052	
25.330	0.140	-0.053	
25.335	-0.171	-0.040	
25.340	-0.116	-0.041	
25.345	0.191	-0.044	
25.350	-0.092	-0.029	
25.355	-0.188	-0.025	
25.360	0.136	-0.033	
25.365	0.062	-0.025	
25.370	-0.200	-0.013	
25.375	0.027	-0.019	
25.380	0.226	-0.015	
25.385	-0.127	0.006	
25.390	-0.069	0.011	
25.395	0.266	0.011	
25.400	-0.038	0.029	
25.405	-0.158	0.034	
25.410	0.154	0.021	
25.415	0.013	0.018	
25.420	-0.225	0.011	
25.425	-0.014	-0.015	
25.430	0.134	-0.030	
25.435	-0.177	-0.029	
25.440	-0.113	-0.038	
25.445	0.175	-0.046	
25.450	-0.104	-0.036	
25.455	-0.190	-0.034	
25.460	0.114	-0.044	
25.465	0.018	-0.038	
25.470	-0.217	-0.031	
25.475	-0.013	-0.042	
25.480	0.143	-0.044	
25.485	-0.181	-0.033	
25.490	-0.116	-0.036	
25.495	0.263	-0.038	
25.500	0.029	-0.012	
25.505	-0.032	0.016	
25.510	0.440	0.046	
25.515	0.282	0.104	
25.520	-0.132	0.154	
25.525	0.009	0.151	
25.530	0.122	0.122	
25.535	-0.185	0.089	
25.540	-0.133	0.038	
25.545	0.181	-0.006	
25.550	-0.086	-0.020	
25.555	-0.188	-0.032	
25.560	0.137	-0.046	
25.565	0.065	-0.038	
25.570	-0.188	-0.023	
25.575	0.058	-0.023	
25.580	0.246	-0.011	
25.585	-0.126	0.016	
25.590	-0.068	0.024	
25.595	0.288	0.024	
25.600	-0.045	0.041	
25.605	-0.156	0.044	
25.610	0.183	0.029	
25.615	0.113	0.032	
25.620	-0.161	0.038	
25.625	0.056	0.027	
25.630	0.256	0.027	
25.635	-0.104	0.043	
25.640	-0.045	0.043	
25.645	0.314	0.041	
25.650	0.013	0.060	
25.655	-0.127	0.068	
25.660	0.236	0.059	
25.665	0.156	0.067	
25.670	-0.144	0.077	
25.675	0.096	0.066	
25.680	0.313	0.065	
25.685	-0.083	0.082	
25.690	-0.028	0.081	
25.695	0.340	0.075	
25.700	0.010	0.088	
25.705	-0.121	0.090	
25.710	0.246	0.075	
25.715	0.145	0.077	
25.720	-0.162	0.081	
25.725	0.056	0.063	
25.730	0.243	0.051	
25.735	-0.122	0.055	
25.740	-0.075	0.043	
25.745	0.256	0.029	
25.750	-0.043	0.035	
25.755	-0.159	0.032	
25.760	0.185	0.016	
25.765	0.108	0.020	
25.770	-0.176	0.029	
25.775	0.030	0.018	
25.780	0.221	0.014	
25.785	-0.110	0.026	
25.790	-0.038	0.026	
25.795	0.321	0.027	
25.800	0.004	0.050	
25.805	-0.129	0.062	
25.810	0.236	0.055	
25.815	0.185	0.066	
25.820	-0.139	0.081	
25.825	0.114	0.074	
25.830	0.339	0.077	
25.835	-0.064	0.098	
25.840	-0.028	0.098	
25.845	0.339	0.090	
25.850	0.021	0.101	
25.855	-0.135	0.099	
25.860	0.195	0.077	
25.865	0.094	0.068	
25.870	-0.197	0.060	
25.875	-0.000	0.031	
25.880	0.204	0.011	
25.885	-0.164	0.011	
25.890	-0.133	-0.003	
25.895	0.191	-0.021	
25.900	-0.077	-0.017	
25.905	-0.187	-0.020	
25.910	0.104	-0.033	
25.915	0.027	-0.031	
25.920	-0.200	-0.027	
25.925	-0.008	-0.037	
25.930	0.177	-0.037	
25.935	-0.150	-0.021	
25.940	-0.078	-0.019	
25.945	0.339	-0.013	
25.950	0.127	0.026	
25.955	0.007	0.068	
25.960	0.458	0.104	
25.965	0.337	0.160	
25.970	-0.113	0.206	
25.975	0.041	0.197	
25.980	0.203	0.164	
25.985	-0.152	0.131	
25.990	-0.107	0.082	
25.995	0.204	0.034	
26.000	-0.072	0.016	
26.005	-0.193	-0.003	
26.010	0.093	-0.028	
26.015	0.064	-0.033	
26.020	-0.194	-0.028	
26.025	0.006	-0.035	
26.030	0.230	-0.030	
26.035	-0.116	-0.006	
26.040	-0.089	0.003	
26.045	0.261	0.005	
26.050	-0.022	0.024	
26.055	-0.168	0.032	
26.060	0.162	0.020	
26.065	0.093	0.022	
26.070	-0.177	0.027	
26.075	0.027	0.014	
26.080	0.247	0.010	
26.085	-0.110	0.026	
26.090	-0.071	0.026	
26.095	0.292	0.024	
26.100	0.020	0.043	
26.105	-0.126	0.054	
26.110	0.217	0.048	
26.115	0.208	0.061	
26.120	-0.136	0.078	
26.125	0.068	0.073	
26.130	0.313	0.071	
26.135	-0.074	0.086	
26.140	-0.035	0.083	
26.145	0.269	0.072	
26.150	-0.013	0.076	
26.155	-0.139	0.069	
26.160	0.195	0.048	
26.165	0.178	0.049	
26.170	-0.144	0.059	
26.175	0.059	0.051	
26.180	0.278	0.049	
26.185	-0.109	0.062	
26.190	-0.090	0.056	
26.195	0.261	0.041	
26.200	-0.002	0.046	
26.205	-0.155	0.045	
26.210	0.139	0.028	
26.215	0.094	0.025	
26.220	-0.182	0.025	
26.225	-0.006	0.008	
26.230	0.197	-0.002	
26.235	-0.145	0.005	
26.240	-0.124	-0.003	
26.245	0.224	-0.014	
26.250	-0.025	-0.003	
26.255	-0.159	0.004	
26.260	0.183	-0.001	
26.265	0.162	0.014	
26.270	-0.133	0.036	
26.275	0.070	0.038	
26.280	0.296	0.047	
26.285	-0.089	0.068	
26.290	-0.057	0.069	
26.295	0.328	0.063	
26.300	0.027	0.077	
26.305	-0.144	0.081	
26.310	0.175	0.064	
26.315	0.127	0.059	
26.320	-0.187	0.057	
26.325	-0.005	0.034	
26.330	0.166	0.015	
26.335	-0.170	0.010	
26.340	-0.153	-0.009	
26.345	0.148	-0.032	
26.350	-0.077	-0.034	
26.355	-0.207	-0.039	
26.360	0.076	-0.053	
26.365	0.041	-0.051	
26.370	-0.214	-0.043	
26.375	-0.035	-0.051	
26.380	0.206	-0.049	
26.385	-0.138	-0.028	
26.390	-0.122	-0.021	
26.395	0.197	-0.023	
26.400	-0.031	-0.008	
26.405	-0.148	-0.000	
26.410	0.244	0.000	
26.415	0.327	0.031	
26.420	-0.000	0.082	
26.425	0.264	0.119	
26.430	0.388	0.157	
26.435	-0.086	0.191	
26.440	-0.110	0.178	
26.445	0.168	0.132	
26.450	-0.087	0.091	
26.455	-0.216	0.044	
26.460	0.044	-0.009	
26.465	0.038	-0.038	
26.470	-0.202	-0.049	
26.475	-0.046	-0.064	
26.480	0.152	-0.066	
26.485	-0.141	-0.050	
26.490	-0.130	-0.044	
26.495	0.203	-0.043	
26.500	-0.026	-0.023	
26.505	-0.174	-0.010	
26.510	0.140	-0.012	
26.515	0.149	0.001	
26.520	-0.167	0.019	
26.525	0.007	0.017	
26.530	0.258	0.017	
26.535	-0.087	0.035	
26.540	-0.083	0.037	
26.545	0.270	0.032	
26.550	0.013	0.045	
26.555	-0.145	0.050	
26.560	0.171	0.039	
26.565	0.183	0.043	
26.570	-0.136	0.056	
26.575	0.042	0.050	
26.580	0.276	0.048	
26.585	-0.086	0.062	
26.590	-0.068	0.059	
26.595	0.328	0.051	
26.600	0.049	0.068	
26.605	-0.144	0.076	
26.610	0.186	0.064	
26.615	0.186	0.065	
26.620	-0.133	0.073	
26.625	0.030	0.062	
26.630	0.264	0.053	
26.635	-0.090	0.061	
26.640	-0.086	0.053	
26.645	0.249	0.039	
26.650	-0.005	0.044	
26.655	-0.168	0.041	
26.660	0.107	0.021	
26.665	0.107	0.015	
26.670	-0.182	0.015	
26.675	-0.020	-0.000	
26.680	0.227	-0.008	
26.685	-0.110	0.005	
26.690	-0.110	0.006	
26.695	0.195	-0.001	
26.700	-0.032	0.007	
26.705	-0.176	0.008	
26.710	0.125	-0.005	
26.715	0.124	-0.002	
26.720	-0.167	0.010	
26.725	-0.006	0.004	
26.730	0.236	0.003	
26.735	-0.122	0.018	
26.740	-0.132	0.015	
26.745	0.214	0.003	
26.750	-0.002	0.010	
26.755	-0.142	0.015	
26.760	0.137	0.008	
26.765	0.084	0.013	
26.770	-0.200	0.018	
26.775	-0.038	0.000	
26.780	0.203	-0.012	
26.785	-0.138	-0.005	
26.790	-0.144	-0.011	
26.795	0.172	-0.023	
26.800	-0.043	-0.018	
26.805	-0.194	-0.017	
26.810	0.061	-0.030	
26.815	0.039	-0.033	
26.820	-0.226	-0.032	
26.825	-0.071	-0.048	
26.830	0.134	-0.058	
26.835	-0.152	-0.050	
26.840	-0.155	-0.052	
26.845	0.140	-0.058	
26.850	-0.078	-0.048	
26.855	-0.219	-0.045	
26.860	0.101	-0.055	
26.865	0.194	-0.041	
26.870	-0.092	-0.008	
26.875	0.151	0.016	
26.880	0.402	0.054	
26.885	-0.101	0.102	
26.890	-0.148	0.109	
26.895	0.096	0.078	
26.900	-0.124	0.045	
26.905	-0.257	0.002	
26.910	-0.013	-0.050	
26.915	0.018	-0.078	
26.920	-0.226	-0.087	
26.925	-0.069	-0.099	
26.930	0.174	-0.095	
26.935	-0.135	-0.069	
26.940	-0.141	-0.054	
26.945	0.169	-0.049	
26.950	-0.057	-0.030	
26.955	-0.210	-0.023	
26.960	0.050	-0.034	
26.965	0.070	-0.036	
26.970	-0.188	-0.030	
26.975	-0.051	-0.038	
26.980	0.192	-0.039	
26.985	-0.142	-0.024	
26.990	-0.147	-0.023	
26.995	0.201	-0.029	
27.000	-0.019	-0.016	
27.005	-0.164	-0.006	
27.010	0.127	-0.011	
27.015	0.127	-0.001	
27.020	-0.176	0.014	
27.025	-0.026	0.007	
27.030	0.227	0.002	
27.035	-0.103	0.014	
27.040	-0.097	0.014	
27.045	0.259	0.010	
27.050	0.015	0.026	
27.055	-0.150	0.036	
27.060	0.119	0.026	
27.065	0.149	0.028	
27.070	-0.170	0.035	
27.075	-0.016	0.022	
27.080	0.253	0.014	
27.085	-0.113	0.025	
27.090	-0.142	0.021	
27.095	0.188	0.005	
27.100	-0.045	0.005	
27.105	-0.202	-0.001	
27.110	0.079	-0.020	
27.115	0.087	-0.024	
27.120	-0.208	-0.020	
27.125	-0.055	-0.032	
27.130	0.189	-0.038	
27.135	-0.132	-0.025	
27.140	-0.153	-0.024	
27.145	0.159	-0.033	
27.150	-0.029	-0.024	
27.155	-0.202	-0.021	
27.160	0.082	-0.031	
27.165	0.101	-0.028	
27.170	-0.203	-0.017	
27.175	-0.055	-0.025	
27.180	0.198	-0.030	
27.185	-0.121	-0.017	
27.190	-0.122	-0.015	
27.195	0.241	-0.017	
27.200	0.032	0.003	
27.205	-0.162	0.019	
27.210	0.088	0.014	
27.215	0.090	0.014	
27.220	-0.197	0.014	
27.225	-0.049	-0.004	
27.230	0.195	-0.017	
27.235	-0.130	-0.011	
27.240	-0.155	-0.016	
27.245	0.154	-0.028	
27.250	-0.045	-0.024	
27.255	-0.223	-0.025	
27.260	0.021	-0.043	
27.265	0.073	-0.048	
27.270	-0.234	-0.045	
27.275	-0.101	-0.058	
27.280	0.124	-0.068	
27.285	-0.156	-0.061	
27.290	-0.171	-0.063	
27.295	0.104	-0.070	
27.300	-0.075	-0.063	
27.305	-0.239	-0.061	
27.310	0.044	-0.072	
27.315	0.162	-0.064	
27.320	-0.090	-0.035	
27.325	0.181	-0.007	
27.330	0.450	0.041	
27.335	-0.058	0.105	
27.340	-0.135	0.126	
27.345	0.139	0.104	
27.350	-0.075	0.078	
27.355	-0.234	0.039	
27.360	0.017	-0.012	
27.365	0.062	-0.041	
27.370	-0.216	-0.051	
27.375	-0.078	-0.067	
27.380	0.162	-0.073	
27.385	-0.127	-0.056	
27.390	-0.147	-0.049	
27.395	0.209	-0.046	
27.400	-0.003	-0.024	
27.405	-0.181	-0.007	
27.410	0.119	-0.009	
27.415	0.165	0.002	
27.420	-0.176	0.019	
27.425	-0.045	0.014	
27.430	0.235	0.007	
27.435	-0.103	0.017	
27.440	-0.126	0.015	
27.445	0.209	0.004	
27.450	0.003	0.012	
27.455	-0.170	0.015	
27.460	0.152	0.006	
27.465	0.221	0.017	
27.470	-0.127	0.040	
27.475	0.035	0.045	
27.480	0.321	0.051	
27.485	-0.042	0.074	
27.490	-0.066	0.079	
27.495	0.318	0.074	
27.500	0.105	0.089	
27.505	-0.138	0.098	
27.510	0.171	0.084	
27.515	0.197	0.080	
27.520	-0.168	0.082	
27.525	-0.046	0.059	
27.530	0.250	0.036	
27.535	-0.087	0.036	
27.540	-0.115	0.027	
27.545	0.250	0.014	
27.550	0.029	0.025	
27.555	-0.177	0.031	
27.560	0.088	0.018	
27.565	0.133	0.014	
27.570	-0.181	0.017	
27.575	-0.046	0.003	
27.580	0.220	-0.007	
27.585	-0.101	0.003	
27.590	-0.124	0.002	
27.595	0.194	-0.006	
27.600	-0.003	0.004	
27.605	-0.181	0.008	
27.610	0.108	-0.004	
27.615	0.188	0.002	
27.620	-0.156	0.019	
27.625	0.003	0.019	
27.630	0.314	0.023	
27.635	-0.051	0.047	
27.640	-0.089	0.056	
27.645	0.295	0.053	
27.650	0.105	0.070	
27.655	-0.130	0.083	
27.660	0.171	0.074	
27.665	0.165	0.074	
27.670	-0.162	0.076	
27.675	-0.029	0.054	
27.680	0.247	0.034	
27.685	-0.109	0.035	
27.690	-0.150	0.023	
27.695	0.174	0.002	
27.700	-0.000	0.001	
27.705	-0.214	-0.002	
27.710	0.018	-0.022	
27.715	0.078	-0.032	
27.720	-0.214	-0.033	
27.725	-0.078	-0.048	
27.730	0.188	-0.054	
27.735	-0.119	-0.039	
27.740	-0.152	-0.034	
27.745	0.165	-0.037	
27.750	-0.043	-0.025	
27.755	-0.210	-0.021	
27.760	0.097	-0.032	
27.765	0.259	-0.020	
27.770	-0.037	0.016	
27.775	0.281	0.053	
27.780	0.588	0.112	
27.785	0.065	0.191	
27.790	-0.046	0.225	
27.795	0.293	0.213	
27.800	0.030	0.194	
27.805	-0.193	0.156	
27.810	0.099	0.097	
27.815	0.189	0.059	
27.820	-0.197	0.042	
27.825	-0.049	0.015	
27.830	0.264	-0.003	
27.835	-0.089	0.007	
27.840	-0.109	0.009	
27.845	0.253	0.006	
