Vernier Format 2
reposo.txt 10/19/2025 10:38:5
Run 1
Time	Potential	EKG	
T	P	E	
s	mV	mV	

0.000	-0.084	-0.004	
0.005	0.026	-0.012	
0.010	0.013	-0.014	
0.015	-0.106	-0.015	
0.020	-0.042	-0.024	
0.025	0.044	-0.031	
0.030	-0.084	-0.030	
0.035	-0.077	-0.033	
0.040	0.046	-0.038	
0.045	-0.031	-0.034	
0.050	-0.089	-0.030	
0.055	0.013	-0.032	
0.060	0.001	-0.030	
0.065	-0.110	-0.028	
0.070	-0.029	-0.033	
0.075	0.055	-0.035	
0.080	-0.081	-0.029	
0.085	-0.078	-0.030	
0.090	0.075	-0.032	
0.095	0.036	-0.022	
0.100	0.041	-0.005	
0.105	0.333	0.026	
0.110	0.382	0.086	
0.115	0.130	0.156	
0.120	0.117	0.197	
0.125	0.099	0.202	
0.130	-0.097	0.177	
0.135	-0.109	0.123	
0.140	0.017	0.060	
0.145	-0.054	0.012	
0.150	-0.116	-0.023	
0.155	-0.003	-0.050	
0.160	-0.005	-0.060	
0.165	-0.116	-0.059	
0.170	-0.046	-0.061	
0.175	0.032	-0.059	
0.180	-0.087	-0.050	
0.185	-0.086	-0.047	
0.190	0.055	-0.047	
0.195	-0.025	-0.038	
0.200	-0.100	-0.031	
0.205	0.023	-0.031	
0.210	0.024	-0.027	
0.215	-0.103	-0.021	
0.220	-0.026	-0.024	
0.225	0.070	-0.025	
0.230	-0.068	-0.019	
0.235	-0.061	-0.018	
0.240	0.091	-0.019	
0.245	-0.016	-0.011	
0.250	-0.083	-0.006	
0.255	0.059	-0.008	
0.260	0.076	-0.003	
0.265	-0.069	0.007	
0.270	0.000	0.008	
0.275	0.107	0.008	
0.280	-0.038	0.015	
0.285	-0.037	0.015	
0.290	0.111	0.013	
0.295	0.001	0.018	
0.300	-0.066	0.019	
0.305	0.067	0.013	
0.310	0.072	0.014	
0.315	-0.069	0.019	
0.320	0.017	0.015	
0.325	0.125	0.015	
0.330	-0.040	0.022	
0.335	-0.035	0.022	
0.340	0.125	0.019	
0.345	0.021	0.025	
0.350	-0.066	0.027	
0.355	0.075	0.022	
0.360	0.061	0.022	
0.365	-0.074	0.024	
0.370	-0.006	0.016	
0.375	0.090	0.009	
0.380	-0.060	0.009	
0.385	-0.058	0.004	
0.390	0.087	-0.004	
0.395	-0.020	-0.002	
0.400	-0.090	-0.003	
0.405	0.036	-0.011	
0.410	0.024	-0.012	
0.415	-0.092	-0.011	
0.420	-0.014	-0.016	
0.425	0.068	-0.018	
0.430	-0.069	-0.013	
0.435	-0.074	-0.015	
0.440	0.061	-0.020	
0.445	-0.026	-0.018	
0.450	-0.089	-0.017	
0.455	0.038	-0.022	
0.460	0.032	-0.019	
0.465	-0.090	-0.013	
0.470	-0.023	-0.016	
0.475	0.076	-0.017	
0.480	-0.060	-0.012	
0.485	-0.055	-0.011	
0.490	0.082	-0.013	
0.495	-0.020	-0.007	
0.500	-0.093	-0.006	
0.505	0.032	-0.012	
0.510	0.035	-0.012	
0.515	-0.086	-0.010	
0.520	-0.025	-0.014	
0.525	0.073	-0.016	
0.530	-0.060	-0.012	
0.535	-0.064	-0.012	
0.540	0.076	-0.016	
0.545	-0.029	-0.012	
0.550	-0.090	-0.011	
0.555	0.053	-0.016	
0.560	0.056	-0.012	
0.565	-0.093	-0.004	
0.570	-0.025	-0.007	
0.575	0.076	-0.010	
0.580	-0.068	-0.007	
0.585	-0.064	-0.010	
0.590	0.084	-0.015	
0.595	-0.019	-0.010	
0.600	-0.087	-0.008	
0.605	0.052	-0.012	
0.610	0.070	-0.008	
0.615	-0.064	0.001	
0.620	0.015	0.004	
0.625	0.124	0.008	
0.630	-0.022	0.020	
0.635	-0.028	0.025	
0.640	0.125	0.025	
0.645	0.001	0.030	
0.650	-0.080	0.030	
0.655	0.059	0.019	
0.660	0.053	0.015	
0.665	-0.093	0.013	
0.670	-0.022	0.003	
0.675	0.072	-0.006	
0.680	-0.084	-0.007	
0.685	-0.087	-0.015	
0.690	0.053	-0.026	
0.695	-0.035	-0.027	
0.700	-0.106	-0.028	
0.705	0.032	-0.034	
0.710	0.030	-0.031	
0.715	-0.106	-0.024	
0.720	-0.035	-0.026	
0.725	0.068	-0.028	
0.730	-0.063	-0.021	
0.735	-0.061	-0.020	
0.740	0.076	-0.020	
0.745	-0.037	-0.015	
0.750	-0.107	-0.014	
0.755	0.056	-0.020	
0.760	0.134	-0.013	
0.765	0.085	0.012	
0.770	0.314	0.051	
0.775	0.453	0.114	
0.780	0.172	0.189	
0.785	0.047	0.229	
0.790	0.119	0.225	
0.795	-0.045	0.192	
0.800	-0.130	0.136	
0.805	-0.005	0.069	
0.810	0.003	0.017	
0.815	-0.119	-0.017	
0.820	-0.068	-0.045	
0.825	0.021	-0.061	
0.830	-0.098	-0.063	
0.835	-0.095	-0.065	
0.840	0.035	-0.066	
0.845	-0.052	-0.058	
0.850	-0.113	-0.051	
0.855	0.013	-0.051	
0.860	0.021	-0.044	
0.865	-0.118	-0.036	
0.870	-0.045	-0.037	
0.875	0.052	-0.038	
0.880	-0.077	-0.032	
0.885	-0.066	-0.031	
0.890	0.068	-0.031	
0.895	-0.020	-0.023	
0.900	-0.092	-0.018	
0.905	0.032	-0.020	
0.910	0.038	-0.017	
0.915	-0.089	-0.011	
0.920	-0.011	-0.014	
0.925	0.094	-0.013	
0.930	-0.043	-0.004	
0.935	-0.049	-0.001	
0.940	0.101	-0.001	
0.945	-0.006	0.006	
0.950	-0.075	0.009	
0.955	0.078	0.005	
0.960	0.070	0.009	
0.965	-0.063	0.017	
0.970	0.013	0.015	
0.975	0.122	0.016	
0.980	-0.035	0.023	
0.985	-0.028	0.024	
0.990	0.134	0.022	
0.995	0.032	0.029	
1.000	-0.051	0.034	
1.005	0.085	0.031	
1.010	0.067	0.033	
1.015	-0.063	0.034	
1.020	0.021	0.027	
1.025	0.124	0.023	
1.030	-0.040	0.028	
1.035	-0.046	0.025	
1.040	0.099	0.017	
1.045	-0.006	0.017	
1.050	-0.078	0.014	
1.055	0.056	0.005	
1.060	0.046	0.003	
1.065	-0.089	0.005	
1.070	-0.017	-0.002	
1.075	0.075	-0.008	
1.080	-0.068	-0.006	
1.085	-0.074	-0.010	
1.090	0.062	-0.017	
1.095	-0.035	-0.017	
1.100	-0.103	-0.019	
1.105	0.021	-0.026	
1.110	0.023	-0.027	
1.115	-0.100	-0.024	
1.120	-0.022	-0.027	
1.125	0.082	-0.026	
1.130	-0.063	-0.018	
1.135	-0.058	-0.015	
1.140	0.081	-0.015	
1.145	-0.022	-0.009	
1.150	-0.084	-0.006	
1.155	0.050	-0.010	
1.160	0.027	-0.008	
1.165	-0.100	-0.006	
1.170	-0.023	-0.012	
1.175	0.082	-0.016	
1.180	-0.061	-0.011	
1.185	-0.064	-0.012	
1.190	0.079	-0.015	
1.195	-0.031	-0.011	
1.200	-0.100	-0.011	
1.205	0.030	-0.018	
1.210	0.027	-0.019	
1.215	-0.100	-0.016	
1.220	-0.031	-0.021	
1.225	0.067	-0.024	
1.230	-0.064	-0.020	
1.235	-0.069	-0.020	
1.240	0.072	-0.022	
1.245	-0.028	-0.017	
1.250	-0.092	-0.015	
1.255	0.035	-0.019	
1.260	0.042	-0.017	
1.265	-0.080	-0.011	
1.270	0.017	-0.010	
1.275	0.113	-0.005	
1.280	-0.048	0.007	
1.285	-0.037	0.011	
1.290	0.133	0.012	
1.295	0.030	0.022	
1.300	-0.058	0.029	
1.305	0.067	0.026	
1.310	0.053	0.026	
1.315	-0.090	0.025	
1.320	-0.020	0.013	
1.325	0.064	0.002	
1.330	-0.083	-0.003	
1.335	-0.081	-0.013	
1.340	0.059	-0.024	
1.345	-0.035	-0.025	
1.350	-0.107	-0.027	
1.355	0.017	-0.033	
1.360	0.018	-0.033	
1.365	-0.101	-0.029	
1.370	-0.023	-0.031	
1.375	0.070	-0.030	
1.380	-0.068	-0.022	
1.385	-0.072	-0.020	
1.390	0.070	-0.022	
1.395	-0.028	-0.017	
1.400	-0.106	-0.016	
1.405	0.009	-0.023	
1.410	0.017	-0.025	
1.415	-0.072	-0.023	
1.420	0.097	-0.019	
1.425	0.331	0.007	
1.430	0.243	0.065	
1.435	0.226	0.130	
1.440	0.322	0.184	
1.445	0.065	0.220	
1.450	-0.097	0.214	
1.455	-0.016	0.165	
1.460	-0.037	0.102	
1.465	-0.133	0.043	
1.470	-0.054	-0.011	
1.475	0.036	-0.045	
1.480	-0.092	-0.057	
1.485	-0.092	-0.063	
1.490	0.041	-0.065	
1.495	-0.055	-0.057	
1.500	-0.119	-0.052	
1.505	0.009	-0.052	
1.510	0.012	-0.047	
1.515	-0.109	-0.040	
1.520	-0.042	-0.040	
1.525	0.047	-0.039	
1.530	-0.089	-0.033	
1.535	-0.075	-0.034	
1.540	0.073	-0.036	
1.545	-0.034	-0.028	
1.550	-0.092	-0.023	
1.555	0.038	-0.025	
1.560	0.036	-0.020	
1.565	-0.090	-0.013	
1.570	-0.006	-0.014	
1.575	0.081	-0.013	
1.580	-0.055	-0.006	
1.585	-0.040	-0.004	
1.590	0.113	-0.004	
1.595	-0.014	0.005	
1.600	-0.078	0.009	
1.605	0.064	0.004	
1.610	0.055	0.006	
1.615	-0.072	0.010	
1.620	0.021	0.007	
1.625	0.125	0.009	
1.630	-0.034	0.019	
1.635	-0.032	0.022	
1.640	0.137	0.021	
1.645	0.010	0.028	
1.650	-0.063	0.031	
1.655	0.093	0.026	
1.660	0.084	0.028	
1.665	-0.068	0.033	
1.670	0.018	0.027	
1.675	0.108	0.023	
1.680	-0.042	0.026	
1.685	-0.035	0.022	
1.690	0.119	0.016	
1.695	0.006	0.020	
1.700	-0.074	0.021	
1.705	0.055	0.013	
1.710	0.039	0.011	
1.715	-0.086	0.010	
1.720	-0.013	0.001	
1.725	0.082	-0.005	
1.730	-0.055	-0.003	
1.735	-0.052	-0.005	
1.740	0.078	-0.009	
1.745	-0.025	-0.005	
1.750	-0.098	-0.006	
1.755	0.035	-0.014	
1.760	0.026	-0.015	
1.765	-0.092	-0.013	
1.770	-0.009	-0.018	
1.775	0.079	-0.018	
1.780	-0.058	-0.011	
1.785	-0.048	-0.009	
1.790	0.096	-0.009	
1.795	-0.020	-0.002	
1.800	-0.089	0.001	
1.805	0.058	-0.005	
1.810	0.042	-0.003	
1.815	-0.089	0.000	
1.820	-0.017	-0.005	
1.825	0.078	-0.009	
1.830	-0.060	-0.005	
1.835	-0.060	-0.007	
1.840	0.096	-0.011	
1.845	-0.016	-0.005	
1.850	-0.083	-0.002	
1.855	0.053	-0.006	
1.860	0.046	-0.004	
1.865	-0.075	0.001	
1.870	0.003	-0.001	
1.875	0.107	-0.001	
1.880	-0.058	0.007	
1.885	-0.057	0.007	
1.890	0.093	0.001	
1.895	-0.005	0.004	
1.900	-0.069	0.006	
1.905	0.078	0.002	
1.910	0.056	0.007	
1.915	-0.083	0.013	
1.920	0.013	0.009	
1.925	0.124	0.008	
1.930	-0.037	0.017	
1.935	-0.031	0.019	
1.940	0.133	0.018	
1.945	0.009	0.025	
1.950	-0.074	0.028	
1.955	0.044	0.020	
1.960	0.030	0.014	
1.965	-0.104	0.009	
1.970	-0.023	-0.005	
1.975	0.059	-0.015	
1.980	-0.077	-0.016	
1.985	-0.072	-0.021	
1.990	0.064	-0.027	
1.995	-0.040	-0.024	
2.000	-0.109	-0.024	
2.005	0.023	-0.031	
2.010	0.018	-0.030	
2.015	-0.097	-0.026	
2.020	-0.022	-0.028	
2.025	0.059	-0.028	
2.030	-0.083	-0.022	
2.035	-0.077	-0.023	
2.040	0.047	-0.029	
2.045	-0.042	-0.027	
2.050	-0.066	-0.026	
2.055	0.169	-0.021	
2.060	0.252	0.010	
2.065	0.146	0.061	
2.070	0.241	0.111	
2.075	0.264	0.156	
2.080	-0.013	0.185	
2.085	-0.068	0.172	
2.090	-0.002	0.128	
2.095	-0.095	0.075	
2.100	-0.138	0.019	
2.105	-0.009	-0.029	
2.110	-0.006	-0.055	
2.115	-0.119	-0.064	
2.120	-0.040	-0.070	
2.125	0.041	-0.067	
2.130	-0.087	-0.056	
2.135	-0.084	-0.050	
2.140	0.053	-0.047	
2.145	-0.043	-0.038	
2.150	-0.101	-0.033	
2.155	0.032	-0.034	
2.160	0.021	-0.029	
2.165	-0.095	-0.022	
2.170	-0.013	-0.023	
2.175	0.070	-0.022	
2.180	-0.068	-0.014	
2.185	-0.063	-0.014	
2.190	0.087	-0.016	
2.195	-0.016	-0.010	
2.200	-0.083	-0.006	
2.205	0.059	-0.009	
2.210	0.050	-0.005	
2.215	-0.078	0.002	
2.220	-0.020	-0.001	
2.225	0.075	-0.004	
2.230	-0.055	-0.002	
2.235	-0.046	-0.004	
2.240	0.111	-0.006	
2.245	-0.003	0.002	
2.250	-0.071	0.007	
2.255	0.073	0.005	
2.260	0.064	0.010	
2.265	-0.074	0.016	
2.270	0.012	0.013	
2.275	0.101	0.011	
2.280	-0.048	0.016	
2.285	-0.042	0.014	
2.290	0.101	0.009	
2.295	-0.011	0.011	
2.300	-0.077	0.011	
2.305	0.055	0.003	
2.310	0.049	0.003	
2.315	-0.077	0.006	
2.320	0.012	0.002	
2.325	0.091	0.001	
2.330	-0.060	0.007	
2.335	-0.058	0.004	
2.340	0.082	-0.002	
2.345	-0.014	-0.000	
2.350	-0.087	-0.001	
2.355	0.038	-0.008	
2.360	0.032	-0.009	
2.365	-0.100	-0.008	
2.370	-0.025	-0.015	
2.375	0.072	-0.019	
2.380	-0.063	-0.015	
2.385	-0.060	-0.015	
2.390	0.075	-0.018	
2.395	-0.017	-0.012	
2.400	-0.080	-0.009	
2.405	0.052	-0.012	
2.410	0.053	-0.007	
2.415	-0.089	-0.001	
2.420	0.007	-0.003	
2.425	0.099	-0.002	
2.430	-0.061	0.005	
2.435	-0.055	0.004	
2.440	0.093	-0.001	
2.445	-0.017	0.002	
2.450	-0.084	0.002	
2.455	0.055	-0.004	
2.460	0.042	-0.004	
2.465	-0.087	-0.000	
2.470	0.000	-0.005	
2.475	0.088	-0.006	
2.480	-0.048	0.001	
2.485	-0.037	0.002	
2.490	0.097	0.001	
2.495	-0.017	0.007	
2.500	-0.087	0.007	
2.505	0.052	-0.000	
2.510	0.026	-0.002	
2.515	-0.100	-0.002	
2.520	-0.013	-0.011	
2.525	0.068	-0.015	
2.530	-0.072	-0.012	
2.535	-0.055	-0.015	
2.540	0.104	-0.017	
2.545	-0.006	-0.008	
2.550	-0.072	-0.001	
2.555	0.072	-0.001	
2.560	0.062	0.005	
2.565	-0.060	0.013	
2.570	0.036	0.014	
2.575	0.108	0.018	
2.580	-0.055	0.025	
2.585	-0.049	0.022	
2.590	0.085	0.013	
2.595	-0.023	0.011	
2.600	-0.087	0.005	
2.605	0.030	-0.006	
2.610	0.026	-0.010	
2.615	-0.109	-0.012	
2.620	-0.042	-0.021	
2.625	0.041	-0.029	
2.630	-0.084	-0.029	
2.635	-0.071	-0.033	
2.640	0.075	-0.036	
2.645	-0.043	-0.029	
2.650	-0.110	-0.026	
2.655	0.023	-0.031	
2.660	0.012	-0.030	
2.665	-0.109	-0.027	
2.670	-0.025	-0.031	
2.675	0.058	-0.032	
2.680	-0.074	-0.026	
2.685	-0.069	-0.025	
2.690	0.062	-0.027	
2.695	-0.019	-0.021	
2.700	-0.040	-0.015	
2.705	0.235	-0.003	
2.710	0.333	0.039	
2.715	0.185	0.102	
2.720	0.243	0.158	
2.725	0.214	0.197	
2.730	-0.052	0.208	
2.735	-0.092	0.176	
2.740	0.026	0.118	
2.745	-0.051	0.064	
2.750	-0.110	0.017	
2.755	0.012	-0.022	
2.760	0.001	-0.040	
2.765	-0.116	-0.047	
2.770	-0.040	-0.054	
2.775	0.042	-0.055	
2.780	-0.086	-0.047	
2.785	-0.075	-0.044	
2.790	0.059	-0.042	
2.795	-0.049	-0.034	
2.800	-0.103	-0.030	
2.805	0.017	-0.034	
2.810	0.013	-0.032	
2.815	-0.103	-0.028	
2.820	-0.026	-0.031	
2.825	0.065	-0.031	
2.830	-0.069	-0.023	
2.835	-0.055	-0.021	
2.840	0.082	-0.021	
2.845	-0.028	-0.013	
2.850	-0.084	-0.009	
2.855	0.062	-0.012	
2.860	0.055	-0.007	
2.865	-0.084	0.001	
2.870	-0.008	-0.001	
2.875	0.090	-0.002	
2.880	-0.057	0.003	
2.885	-0.046	0.002	
2.890	0.113	-0.001	
2.895	0.007	0.007	
2.900	-0.060	0.012	
2.905	0.072	0.011	
2.910	0.056	0.015	
2.915	-0.066	0.019	
2.920	0.017	0.015	
2.925	0.101	0.014	
2.930	-0.045	0.018	
2.935	-0.020	0.017	
2.940	0.124	0.015	
2.945	-0.011	0.021	
2.950	-0.081	0.021	
2.955	0.065	0.012	
2.960	0.053	0.010	
2.965	-0.074	0.012	
2.970	0.018	0.007	
2.975	0.102	0.006	
2.980	-0.057	0.013	
2.985	-0.055	0.010	
2.990	0.085	0.003	
2.995	-0.022	0.004	
3.000	-0.083	0.001	
3.005	0.062	-0.006	
3.010	0.007	-0.006	
3.015	-0.107	-0.006	
3.020	-0.025	-0.016	
3.025	0.064	-0.022	
3.030	-0.072	-0.020	
3.035	-0.068	-0.022	
3.040	0.079	-0.024	
3.045	-0.026	-0.018	
3.050	-0.086	-0.015	
3.055	0.049	-0.017	
3.060	0.039	-0.013	
3.065	-0.078	-0.006	
3.070	0.000	-0.007	
3.075	0.076	-0.006	
3.080	-0.064	-0.001	
3.085	-0.054	-0.003	
3.090	0.090	-0.007	
3.095	-0.023	-0.003	
3.100	-0.093	-0.003	
3.105	0.053	-0.010	
3.110	0.044	-0.008	
3.115	-0.080	-0.003	
3.120	0.010	-0.005	
3.125	0.090	-0.004	
3.130	-0.051	0.004	
3.135	-0.035	0.005	
3.140	0.105	0.004	
3.145	-0.023	0.010	
3.150	-0.095	0.009	
3.155	0.050	-0.001	
3.160	0.035	-0.003	
3.165	-0.087	-0.003	
3.170	-0.013	-0.009	
3.175	0.078	-0.012	
3.180	-0.058	-0.007	
3.185	-0.045	-0.007	
3.190	0.090	-0.009	
3.195	-0.019	-0.003	
3.200	-0.090	-0.001	
3.205	0.053	-0.006	
3.210	0.046	-0.005	
3.215	-0.077	-0.001	
3.220	0.020	-0.002	
3.225	0.116	0.001	
3.230	-0.049	0.012	
3.235	-0.031	0.014	
3.240	0.142	0.014	
3.245	0.009	0.024	
3.250	-0.068	0.028	
3.255	0.075	0.023	
3.260	0.038	0.022	
3.265	-0.098	0.019	
3.270	-0.017	0.007	
3.275	0.065	-0.004	
3.280	-0.080	-0.007	
3.285	-0.074	-0.015	
3.290	0.059	-0.024	
3.295	-0.049	-0.024	
3.300	-0.112	-0.027	
3.305	0.012	-0.035	
3.310	-0.005	-0.037	
3.315	-0.110	-0.036	
3.320	-0.022	-0.040	
3.325	0.075	-0.039	
3.330	-0.077	-0.028	
3.335	-0.071	-0.025	
3.340	0.065	-0.026	
3.345	-0.037	-0.020	
3.350	-0.095	-0.019	
3.355	0.033	-0.023	
3.360	0.013	-0.022	
3.365	-0.100	-0.019	
3.370	0.029	-0.021	
3.375	0.226	-0.010	
3.380	0.162	0.027	
3.385	0.244	0.077	
3.390	0.385	0.135	
3.395	0.140	0.192	
3.400	-0.035	0.213	
3.405	0.033	0.189	
3.410	-0.009	0.144	
3.415	-0.119	0.090	
3.420	-0.045	0.033	
3.425	0.024	-0.009	
3.430	-0.104	-0.033	
3.435	-0.095	-0.052	
3.440	0.033	-0.063	
3.445	-0.061	-0.061	
3.450	-0.124	-0.059	
3.455	-0.003	-0.061	
3.460	-0.011	-0.058	
3.465	-0.116	-0.052	
3.470	-0.031	-0.052	
3.475	0.033	-0.049	
3.480	-0.103	-0.042	
3.485	-0.084	-0.042	
3.490	0.046	-0.045	
3.495	-0.045	-0.040	
3.500	-0.101	-0.037	
3.505	0.033	-0.038	
3.510	0.009	-0.033	
3.515	-0.106	-0.027	
3.520	-0.019	-0.029	
3.525	0.073	-0.028	
3.530	-0.064	-0.019	
3.535	-0.054	-0.017	
3.540	0.091	-0.016	
3.545	-0.023	-0.008	
3.550	-0.086	-0.004	
3.555	0.058	-0.008	
3.560	0.042	-0.005	
3.565	-0.075	0.000	
3.570	0.018	-0.001	
3.575	0.122	0.002	
3.580	-0.045	0.013	
3.585	-0.042	0.016	
3.590	0.105	0.013	
3.595	-0.008	0.017	
3.600	-0.060	0.017	
3.605	0.105	0.013	
3.610	0.052	0.018	
3.615	-0.077	0.023	
3.620	0.015	0.017	
3.625	0.108	0.014	
3.630	-0.037	0.019	
3.635	-0.020	0.018	
3.640	0.113	0.016	
3.645	-0.011	0.021	
3.650	-0.075	0.021	
3.655	0.064	0.012	
3.660	0.044	0.010	
3.665	-0.075	0.011	
3.670	0.009	0.005	
3.675	0.087	0.002	
3.680	-0.066	0.006	
3.685	-0.049	0.002	
3.690	0.094	-0.003	
3.695	-0.013	0.001	
3.700	-0.074	0.002	
3.705	0.065	-0.002	
3.710	0.038	0.001	
3.715	-0.087	0.005	
3.720	-0.002	-0.001	
3.725	0.107	-0.003	
3.730	-0.057	0.004	
3.735	-0.051	0.004	
3.740	0.110	0.001	
3.745	-0.003	0.007	
3.750	-0.060	0.011	
3.755	0.087	0.009	
3.760	0.064	0.014	
3.765	-0.072	0.021	
3.770	0.024	0.018	
3.775	0.110	0.017	
3.780	-0.037	0.023	
3.785	-0.017	0.023	
3.790	0.128	0.021	
3.795	0.013	0.028	
3.800	-0.054	0.031	
3.805	0.091	0.026	
3.810	0.056	0.028	
3.815	-0.083	0.029	
3.820	-0.003	0.019	
3.825	0.085	0.010	
3.830	-0.055	0.009	
3.835	-0.042	0.004	
3.840	0.119	-0.000	
3.845	-0.005	0.007	
3.850	-0.077	0.010	
3.855	0.058	0.005	
3.860	0.038	0.006	
3.865	-0.087	0.007	
3.870	0.000	-0.000	
3.875	0.079	-0.004	
3.880	-0.066	-0.001	
3.885	-0.049	-0.004	
3.890	0.097	-0.008	
3.895	-0.006	-0.002	
3.900	-0.057	0.003	
3.905	0.105	0.004	
3.910	0.076	0.014	
3.915	-0.075	0.025	
3.920	0.030	0.024	
3.925	0.128	0.024	
3.930	-0.055	0.030	
3.935	-0.046	0.027	
3.940	0.096	0.017	
3.945	-0.019	0.016	
3.950	-0.083	0.011	
3.955	0.039	-0.000	
3.960	0.007	-0.006	
3.965	-0.107	-0.010	
3.970	-0.026	-0.021	
3.975	0.036	-0.028	
3.980	-0.098	-0.029	
3.985	-0.086	-0.035	
3.990	0.044	-0.042	
3.995	-0.051	-0.040	
4.000	-0.115	-0.040	
4.005	0.010	-0.045	
4.010	-0.003	-0.043	
4.015	-0.121	-0.040	
4.020	-0.042	-0.044	
4.025	0.035	-0.046	
4.030	-0.095	-0.041	
4.035	-0.075	-0.042	
4.040	0.050	-0.044	
4.045	-0.051	-0.038	
4.050	-0.103	-0.035	
4.055	0.061	-0.036	
4.060	0.134	-0.023	
4.065	0.052	0.005	
4.070	0.279	0.042	
4.075	0.357	0.097	
4.080	0.075	0.155	
4.085	-0.008	0.178	
4.090	0.056	0.162	
4.095	-0.083	0.125	
4.100	-0.144	0.072	
4.105	-0.006	0.015	
4.110	-0.016	-0.023	
4.115	-0.127	-0.046	
4.120	-0.051	-0.063	
4.125	0.023	-0.069	
4.130	-0.103	-0.065	
4.135	-0.090	-0.063	
4.140	0.024	-0.063	
4.145	-0.072	-0.056	
4.150	-0.119	-0.054	
4.155	0.007	-0.056	
4.160	-0.014	-0.053	
4.165	-0.121	-0.048	
4.170	-0.040	-0.050	
4.175	0.041	-0.050	
4.180	-0.087	-0.042	
4.185	-0.075	-0.040	
4.190	0.073	-0.040	
4.195	-0.034	-0.030	
4.200	-0.097	-0.024	
4.205	0.044	-0.025	
4.210	0.024	-0.020	
4.215	-0.101	-0.015	
4.220	-0.020	-0.018	
4.225	0.070	-0.020	
4.230	-0.071	-0.015	
4.235	-0.052	-0.015	
4.240	0.105	-0.016	
4.245	-0.011	-0.006	
4.250	-0.075	-0.000	
4.255	0.073	-0.001	
4.260	0.049	0.004	
4.265	-0.077	0.010	
4.270	0.012	0.007	
4.275	0.111	0.007	
4.280	-0.042	0.014	
4.285	-0.031	0.015	
4.290	0.117	0.014	
4.295	-0.005	0.019	
4.300	-0.071	0.020	
4.305	0.072	0.014	
4.310	0.046	0.013	
4.315	-0.084	0.014	
4.320	0.009	0.007	
4.325	0.075	0.002	
4.330	-0.060	0.004	
4.335	-0.037	0.001	
4.340	0.110	-0.002	
4.345	-0.022	0.004	
4.350	-0.089	0.005	
4.355	0.050	-0.002	
4.360	0.020	-0.004	
4.365	-0.098	-0.004	
4.370	-0.003	-0.012	
4.375	0.067	-0.015	
4.380	-0.080	-0.012	
4.385	-0.066	-0.015	
4.390	0.067	-0.021	
4.395	-0.035	-0.018	
4.400	-0.090	-0.018	
4.405	0.046	-0.022	
4.410	0.032	-0.019	
4.415	-0.089	-0.013	
4.420	-0.005	-0.014	
4.425	0.064	-0.014	
4.430	-0.072	-0.009	
4.435	-0.046	-0.011	
4.440	0.113	-0.012	
4.445	-0.003	-0.002	
4.450	-0.080	0.004	
4.455	0.055	0.002	
4.460	0.029	0.003	
4.465	-0.087	0.004	
4.470	0.001	-0.003	
4.475	0.081	-0.006	
4.480	-0.064	-0.002	
4.485	-0.046	-0.004	
4.490	0.107	-0.006	
4.495	-0.011	0.001	
4.500	-0.069	0.005	
4.505	0.085	0.003	
4.510	0.061	0.009	
4.515	-0.081	0.016	
4.520	0.012	0.013	
4.525	0.085	0.010	
4.530	-0.064	0.012	
4.535	-0.051	0.007	
4.540	0.105	-0.000	
4.545	-0.013	0.003	
4.550	-0.074	0.005	
4.555	0.065	0.000	
4.560	0.046	0.003	
4.565	-0.071	0.007	
4.570	0.024	0.005	
4.575	0.116	0.007	
4.580	-0.037	0.017	
4.585	-0.035	0.019	
4.590	0.105	0.016	
4.595	-0.019	0.019	
4.600	-0.078	0.017	
4.605	0.079	0.008	
4.610	0.062	0.009	
4.615	-0.058	0.014	
4.620	0.047	0.014	
4.625	0.140	0.019	
4.630	-0.029	0.032	
4.635	-0.022	0.035	
4.640	0.139	0.033	
4.645	0.015	0.039	
4.650	-0.057	0.039	
4.655	0.105	0.033	
4.660	0.085	0.034	
4.665	-0.064	0.039	
4.670	0.007	0.032	
4.675	0.078	0.024	
4.680	-0.068	0.020	
4.685	-0.051	0.009	
4.690	0.082	-0.002	
4.695	-0.037	-0.003	
4.700	-0.100	-0.007	
4.705	0.030	-0.018	
4.710	0.006	-0.021	
4.715	-0.107	-0.022	
4.720	-0.028	-0.029	
4.725	0.053	-0.032	
4.730	-0.080	-0.028	
4.735	-0.049	-0.028	
4.740	0.081	-0.027	
4.745	-0.037	-0.018	
4.750	-0.089	-0.014	
4.755	0.038	-0.018	
4.760	0.007	-0.017	
4.765	-0.095	-0.015	
4.770	0.050	-0.017	
4.775	0.249	-0.004	
4.780	0.162	0.036	
4.785	0.266	0.088	
4.790	0.395	0.147	
4.795	0.151	0.205	
4.800	-0.037	0.226	
4.805	0.047	0.200	
4.810	-0.008	0.153	
4.815	-0.119	0.097	
4.820	-0.040	0.039	
4.825	0.017	-0.006	
4.830	-0.110	-0.032	
4.835	-0.097	-0.053	
4.840	0.029	-0.066	
4.845	-0.066	-0.065	
4.850	-0.119	-0.063	
4.855	0.003	-0.064	
4.860	-0.019	-0.059	
4.865	-0.122	-0.053	
4.870	-0.038	-0.054	
4.875	0.038	-0.052	
4.880	-0.092	-0.044	
4.885	-0.080	-0.042	
4.890	0.044	-0.043	
4.895	-0.054	-0.038	
4.900	-0.104	-0.036	
4.905	0.032	-0.039	
4.910	0.009	-0.035	
4.915	-0.107	-0.029	
4.920	-0.022	-0.031	
4.925	0.058	-0.031	
4.930	-0.078	-0.024	
4.935	-0.054	-0.024	
4.940	0.094	-0.023	
4.945	-0.034	-0.014	
4.950	-0.087	-0.010	
4.955	0.062	-0.013	
4.960	0.042	-0.008	
4.965	-0.080	-0.001	
4.970	0.015	-0.002	
4.975	0.101	-0.000	
4.980	-0.055	0.008	
4.985	-0.037	0.009	
4.990	0.119	0.007	
4.995	0.000	0.014	
5.000	-0.057	0.018	
5.005	0.099	0.016	
5.010	0.081	0.022	
5.015	-0.052	0.031	
5.020	0.041	0.030	
5.025	0.111	0.031	
5.030	-0.048	0.035	
5.035	-0.028	0.031	
5.040	0.128	0.024	
5.045	-0.003	0.026	
5.050	-0.074	0.025	
5.055	0.065	0.016	
5.060	0.036	0.013	
5.065	-0.083	0.011	
5.070	0.001	0.003	
5.075	0.079	-0.002	
5.080	-0.061	0.000	
5.085	-0.052	-0.003	
5.090	0.084	-0.008	
5.095	-0.029	-0.005	
5.100	-0.092	-0.005	
5.105	0.039	-0.013	
5.110	0.013	-0.014	
5.115	-0.093	-0.013	
5.120	-0.005	-0.019	
5.125	0.067	-0.020	
5.130	-0.072	-0.014	
5.135	-0.051	-0.014	
5.140	0.088	-0.016	
5.145	-0.022	-0.009	
5.150	-0.075	-0.005	
5.155	0.062	-0.007	
5.160	0.039	-0.003	
5.165	-0.083	0.002	
5.170	0.010	-0.001	
5.175	0.102	-0.000	
5.180	-0.060	0.007	
5.185	-0.048	0.006	
5.190	0.090	0.002	
5.195	-0.029	0.004	
5.200	-0.080	0.002	
5.205	0.061	-0.005	
5.210	0.036	-0.004	
5.215	-0.081	-0.000	
5.220	0.013	-0.004	
5.225	0.091	-0.003	
5.230	-0.054	0.005	
5.235	-0.049	0.004	
5.240	0.104	0.001	
5.245	-0.008	0.006	
5.250	-0.077	0.008	
5.255	0.055	0.003	
5.260	0.024	0.002	
5.265	-0.089	0.002	
5.270	-0.003	-0.006	
5.275	0.081	-0.009	
5.280	-0.066	-0.005	
5.285	-0.054	-0.007	
5.290	0.085	-0.010	
5.295	-0.028	-0.006	
5.300	-0.083	-0.005	
5.305	0.055	-0.011	
5.310	0.023	-0.009	
5.315	-0.092	-0.006	
5.320	0.000	-0.011	
5.325	0.053	-0.013	
5.330	-0.074	-0.010	
5.335	-0.060	-0.014	
5.340	0.067	-0.019	
5.345	-0.037	-0.016	
5.350	-0.089	-0.016	
5.355	0.062	-0.020	
5.360	0.053	-0.015	
5.365	-0.057	-0.004	
5.370	0.038	0.001	
5.375	0.093	0.009	
5.380	-0.055	0.018	
5.385	-0.028	0.018	
5.390	0.140	0.015	
5.395	-0.014	0.023	
5.400	-0.078	0.023	
5.405	0.067	0.015	
5.410	0.035	0.012	
5.415	-0.090	0.010	
5.420	-0.013	0.001	
5.425	0.059	-0.007	
5.430	-0.080	-0.008	
5.435	-0.069	-0.015	
5.440	0.061	-0.023	
5.445	-0.049	-0.022	
5.450	-0.101	-0.024	
5.455	0.035	-0.031	
5.460	0.012	-0.029	
5.465	-0.101	-0.025	
5.470	-0.026	-0.028	
5.475	0.052	-0.029	
5.480	-0.080	-0.025	
5.485	-0.051	-0.025	
5.490	0.091	-0.025	
5.495	-0.028	-0.015	
5.500	-0.100	-0.011	
5.505	0.035	-0.015	
5.510	0.029	-0.015	
5.515	-0.038	-0.009	
5.520	0.180	0.001	
5.525	0.388	0.039	
5.530	0.236	0.105	
5.535	0.186	0.167	
5.540	0.258	0.206	
5.545	0.001	0.220	
5.550	-0.107	0.193	
5.555	-0.009	0.134	
5.560	-0.028	0.073	
5.565	-0.132	0.021	
5.570	-0.054	-0.025	
5.575	0.017	-0.053	
5.580	-0.112	-0.063	
5.585	-0.097	-0.070	
5.590	0.024	-0.074	
5.595	-0.069	-0.068	
5.600	-0.121	-0.063	
5.605	0.003	-0.063	
5.610	-0.016	-0.058	
5.615	-0.115	-0.051	
5.620	-0.028	-0.051	
5.625	0.026	-0.048	
5.630	-0.101	-0.041	
5.635	-0.078	-0.042	
5.640	0.052	-0.044	
5.645	-0.045	-0.038	
5.650	-0.093	-0.034	
5.655	0.042	-0.034	
5.660	0.029	-0.027	
5.665	-0.087	-0.018	
5.670	0.004	-0.017	
5.675	0.084	-0.013	
5.680	-0.066	-0.004	
5.685	-0.051	-0.003	
5.690	0.099	-0.005	
5.695	-0.009	0.001	
5.700	-0.074	0.004	
5.705	0.055	0.000	
5.710	0.030	0.001	
5.715	-0.081	0.003	
5.720	0.012	-0.002	
5.725	0.096	-0.002	
5.730	-0.052	0.005	
5.735	-0.032	0.006	
5.740	0.119	0.005	
5.745	0.004	0.014	
5.750	-0.060	0.018	
5.755	0.085	0.016	
5.760	0.061	0.020	
5.765	-0.063	0.025	
5.770	0.050	0.022	
5.775	0.120	0.024	
5.780	-0.051	0.031	
5.785	-0.035	0.029	
5.790	0.110	0.021	
5.795	-0.022	0.021	
5.800	-0.078	0.017	
5.805	0.053	0.006	
5.810	0.038	0.002	
5.815	-0.081	0.002	
5.820	0.007	-0.003	
5.825	0.076	-0.005	
5.830	-0.071	-0.001	
5.835	-0.048	-0.004	
5.840	0.087	-0.008	
5.845	-0.032	-0.005	
5.850	-0.097	-0.005	
5.855	0.049	-0.013	
5.860	0.021	-0.013	
5.865	-0.095	-0.011	
5.870	-0.006	-0.016	
5.875	0.082	-0.017	
5.880	-0.061	-0.010	
5.885	-0.052	-0.009	
5.890	0.085	-0.010	
5.895	-0.028	-0.005	
5.900	-0.081	-0.004	
5.905	0.050	-0.009	
5.910	0.039	-0.007	
5.915	-0.077	-0.003	
5.920	-0.003	-0.005	
5.925	0.062	-0.007	
5.930	-0.069	-0.004	
5.935	-0.051	-0.007	
5.940	0.090	-0.011	
5.945	-0.023	-0.007	
5.950	-0.077	-0.004	
5.955	0.064	-0.008	
5.960	0.032	-0.004	
5.965	-0.084	0.000	
5.970	0.015	-0.003	
5.975	0.104	-0.002	
5.980	-0.060	0.006	
5.985	-0.042	0.007	
5.990	0.078	0.003	
5.995	-0.032	0.004	
6.000	-0.086	0.000	
6.005	0.052	-0.008	
6.010	0.017	-0.010	
6.015	-0.095	-0.009	
6.020	-0.003	-0.015	
6.025	0.073	-0.017	
6.030	-0.068	-0.011	
6.035	-0.048	-0.011	
6.040	0.102	-0.012	
6.045	-0.017	-0.004	
6.050	-0.074	0.001	
6.055	0.058	-0.002	
6.060	0.012	-0.001	
6.065	-0.097	-0.001	
6.070	0.003	-0.009	
6.075	0.099	-0.011	
6.080	-0.058	-0.003	
6.085	-0.040	-0.001	
6.090	0.113	-0.002	
6.095	0.009	0.008	
6.100	-0.052	0.014	
6.105	0.094	0.015	
6.110	0.049	0.021	
6.115	-0.078	0.025	
6.120	0.017	0.019	
6.125	0.096	0.014	
6.130	-0.061	0.016	
6.135	-0.060	0.010	
6.140	0.062	-0.000	
6.145	-0.045	-0.004	
6.150	-0.106	-0.012	
6.155	0.018	-0.024	
6.160	-0.013	-0.030	
6.165	-0.115	-0.032	
6.170	-0.020	-0.040	
6.175	0.052	-0.041	
6.180	-0.081	-0.034	
6.185	-0.058	-0.032	
6.190	0.078	-0.031	
6.195	-0.026	-0.021	
6.200	-0.075	-0.015	
6.205	0.047	-0.015	
6.210	0.003	-0.011	
6.215	-0.110	-0.010	
6.220	-0.013	-0.018	
6.225	0.119	-0.020	
6.230	0.024	-0.005	
6.235	0.149	0.017	
6.240	0.397	0.059	
6.245	0.229	0.122	
6.250	0.049	0.172	
6.255	0.137	0.187	
6.260	0.013	0.175	
6.265	-0.135	0.138	
6.270	-0.064	0.080	
6.275	0.013	0.025	
6.280	-0.098	-0.013	
6.285	-0.081	-0.041	
6.290	0.038	-0.058	
6.295	-0.060	-0.058	
6.300	-0.115	-0.057	
6.305	0.017	-0.058	
6.310	-0.002	-0.052	
6.315	-0.113	-0.044	
6.320	-0.026	-0.044	
6.325	0.049	-0.041	
6.330	-0.084	-0.033	
6.335	-0.060	-0.031	
6.340	0.082	-0.030	
6.345	-0.040	-0.021	
6.350	-0.090	-0.017	
6.355	0.065	-0.019	
6.360	0.039	-0.013	
6.365	-0.092	-0.005	
6.370	-0.002	-0.007	
6.375	0.070	-0.008	
6.380	-0.063	-0.003	
6.385	-0.042	-0.005	
6.390	0.094	-0.007	
6.395	-0.019	-0.001	
6.400	-0.075	0.001	
6.405	0.064	-0.003	
6.410	0.042	0.000	
6.415	-0.077	0.005	
6.420	0.021	0.002	
6.425	0.099	0.004	
6.430	-0.032	0.012	
6.435	-0.025	0.014	
6.440	0.090	0.013	
6.445	-0.023	0.016	
6.450	-0.071	0.014	
6.455	0.081	0.006	
6.460	0.053	0.008	
6.465	-0.066	0.013	
6.470	0.030	0.011	
6.475	0.104	0.012	
6.480	-0.048	0.019	
6.485	-0.023	0.019	
6.490	0.113	0.016	
6.495	-0.014	0.020	
6.500	-0.066	0.019	
6.505	0.078	0.012	
6.510	0.026	0.012	
6.515	-0.089	0.011	
6.520	0.000	0.002	
6.525	0.065	-0.004	
6.530	-0.063	-0.003	
6.535	-0.054	-0.007	
6.540	0.076	-0.013	
6.545	-0.035	-0.010	
6.550	-0.086	-0.010	
6.555	0.050	-0.016	
6.560	0.018	-0.014	
6.565	-0.097	-0.011	
6.570	-0.016	-0.017	
6.575	0.049	-0.020	
6.580	-0.081	-0.018	
6.585	-0.055	-0.021	
6.590	0.073	-0.024	
6.595	-0.028	-0.019	
6.600	-0.083	-0.015	
6.605	0.049	-0.018	
6.610	0.018	-0.014	
6.615	-0.090	-0.010	
6.620	0.012	-0.013	
6.625	0.067	-0.012	
6.630	-0.060	-0.005	
6.635	-0.025	-0.005	
6.640	0.082	-0.005	
6.645	-0.035	0.001	
6.650	-0.084	0.000	
6.655	0.042	-0.008	
6.660	0.018	-0.009	
6.665	-0.089	-0.009	
6.670	0.000	-0.014	
6.675	0.038	-0.017	
6.680	-0.081	-0.015	
6.685	-0.055	-0.020	
6.690	0.070	-0.024	
6.695	-0.034	-0.019	
6.700	-0.071	-0.017	
6.705	0.088	-0.016	
6.710	0.044	-0.006	
6.715	-0.077	0.005	
6.720	0.013	0.005	
6.725	0.081	0.005	
6.730	-0.069	0.009	
6.735	-0.040	0.005	
6.740	0.107	0.000	
6.745	-0.020	0.005	
6.750	-0.069	0.006	
6.755	0.078	0.002	
6.760	0.049	0.006	
6.765	-0.068	0.011	
6.770	0.039	0.010	
6.775	0.124	0.014	
6.780	-0.046	0.024	
6.785	-0.009	0.026	
6.790	0.130	0.025	
6.795	-0.008	0.031	
6.800	-0.066	0.030	
6.805	0.065	0.021	
6.810	0.021	0.017	
6.815	-0.084	0.012	
6.820	-0.005	0.001	
6.825	0.058	-0.006	
6.830	-0.078	-0.007	
6.835	-0.054	-0.014	
6.840	0.093	-0.018	
6.845	-0.037	-0.013	
6.850	-0.092	-0.011	
6.855	0.030	-0.017	
6.860	-0.014	-0.019	
6.865	-0.112	-0.021	
6.870	-0.020	-0.031	
6.875	0.053	-0.034	
6.880	-0.081	-0.029	
6.885	-0.051	-0.029	
6.890	0.072	-0.028	
6.895	-0.045	-0.021	
6.900	-0.097	-0.018	
6.905	0.056	-0.022	
6.910	0.085	-0.015	
6.915	0.015	0.002	
6.920	0.252	0.027	
6.925	0.376	0.076	
6.930	0.120	0.137	
6.935	0.056	0.174	
6.940	0.111	0.175	
6.945	-0.060	0.154	
6.950	-0.127	0.108	
6.955	-0.029	0.050	
6.960	-0.040	0.002	
6.965	-0.126	-0.033	
6.970	-0.043	-0.059	
6.975	0.024	-0.070	
6.980	-0.098	-0.067	
6.985	-0.061	-0.064	
6.990	0.055	-0.058	
6.995	-0.060	-0.045	
7.000	-0.106	-0.038	
7.005	0.024	-0.039	
7.010	-0.014	-0.036	
7.015	-0.103	-0.032	
7.020	-0.011	-0.035	
7.025	0.050	-0.034	
7.030	-0.080	-0.026	
7.035	-0.052	-0.025	
7.040	0.081	-0.025	
7.045	-0.032	-0.016	
7.050	-0.081	-0.012	
7.055	0.072	-0.014	
7.060	0.046	-0.007	
7.065	-0.092	0.001	
7.070	0.001	-0.002	
7.075	0.073	-0.003	
7.080	-0.066	0.000	
7.085	-0.032	-0.002	
7.090	0.108	-0.004	
7.095	-0.023	0.003	
7.100	-0.061	0.006	
7.105	0.076	0.003	
7.110	0.036	0.007	
7.115	-0.075	0.011	
7.120	0.026	0.007	
7.125	0.101	0.007	
7.130	-0.045	0.014	
7.135	-0.034	0.014	
7.140	0.093	0.011	
7.145	-0.025	0.013	
7.150	-0.061	0.011	
7.155	0.079	0.004	
7.160	0.047	0.007	
7.165	-0.064	0.012	
7.170	0.023	0.010	
7.175	0.081	0.010	
7.180	-0.061	0.013	
7.185	-0.040	0.009	
7.190	0.085	0.003	
7.195	-0.032	0.003	
7.200	-0.068	0.001	
7.205	0.072	-0.005	
7.210	0.007	-0.003	
7.215	-0.103	-0.002	
7.220	-0.009	-0.011	
7.225	0.055	-0.016	
7.230	-0.083	-0.015	
7.235	-0.057	-0.020	
7.240	0.079	-0.024	
7.245	-0.032	-0.018	
7.250	-0.078	-0.015	
7.255	0.055	-0.017	
7.260	0.020	-0.012	
7.265	-0.092	-0.008	
7.270	0.001	-0.012	
7.275	0.053	-0.013	
7.280	-0.080	-0.010	
7.285	-0.037	-0.013	
7.290	0.085	-0.016	
7.295	-0.046	-0.010	
7.300	-0.086	-0.009	
7.305	0.058	-0.015	
7.310	0.013	-0.013	
7.315	-0.095	-0.010	
7.320	0.009	-0.014	
7.325	0.076	-0.014	
7.330	-0.061	-0.007	
7.335	-0.048	-0.006	
7.340	0.075	-0.009	
7.345	-0.031	-0.005	
7.350	-0.071	-0.005	
7.355	0.067	-0.009	
7.360	0.021	-0.005	
7.365	-0.095	-0.002	
7.370	0.009	-0.007	
7.375	0.070	-0.009	
7.380	-0.072	-0.004	
7.385	-0.038	-0.007	
7.390	0.099	-0.009	
7.395	-0.028	-0.002	
7.400	-0.069	0.000	
7.405	0.064	-0.003	
7.410	0.013	-0.001	
7.415	-0.097	-0.000	
7.420	0.009	-0.007	
7.425	0.068	-0.010	
7.430	-0.075	-0.006	
7.435	-0.037	-0.009	
7.440	0.099	-0.011	
7.445	-0.028	-0.003	
7.450	-0.068	-0.000	
7.455	0.085	-0.002	
7.460	0.036	0.003	
7.465	-0.064	0.010	
7.470	0.041	0.009	
7.475	0.097	0.012	
7.480	-0.066	0.019	
7.485	-0.037	0.016	
7.490	0.099	0.009	
7.495	-0.032	0.010	
7.500	-0.081	0.007	
7.505	0.061	-0.002	
7.510	0.020	-0.004	
7.515	-0.087	-0.003	
7.520	-0.009	-0.010	
7.525	0.046	-0.014	
7.530	-0.087	-0.014	
7.535	-0.051	-0.020	
7.540	0.078	-0.024	
7.545	-0.057	-0.019	
7.550	-0.100	-0.020	
7.555	0.038	-0.026	
7.560	0.003	-0.026	
7.565	-0.095	-0.023	
7.570	0.000	-0.026	
7.575	0.058	-0.025	
7.580	-0.084	-0.018	
7.585	-0.055	-0.019	
7.590	0.101	-0.020	
7.595	0.009	-0.010	
7.600	0.024	0.003	
7.605	0.304	0.026	
7.610	0.337	0.077	
7.615	0.160	0.140	
7.620	0.217	0.186	
7.625	0.148	0.208	
7.630	-0.078	0.201	
7.635	-0.084	0.156	
7.640	0.020	0.094	
7.645	-0.069	0.042	
7.650	-0.103	-0.002	
7.655	0.029	-0.035	
7.660	-0.022	-0.047	
7.665	-0.119	-0.051	
7.670	-0.022	-0.056	
7.675	0.038	-0.054	
7.680	-0.089	-0.045	
7.685	-0.051	-0.041	
7.690	0.076	-0.037	
7.695	-0.060	-0.026	
7.700	-0.095	-0.022	
7.705	0.032	-0.026	
7.710	-0.002	-0.025	
7.715	-0.100	-0.023	
7.720	0.007	-0.027	
7.725	0.072	-0.024	
7.730	-0.078	-0.015	
7.735	-0.045	-0.014	
7.740	0.090	-0.014	
7.745	-0.029	-0.007	
7.750	-0.069	-0.004	
7.755	0.072	-0.006	
7.760	0.023	-0.001	
7.765	-0.078	0.003	
7.770	0.030	-0.000	
7.775	0.097	0.002	
7.780	-0.064	0.010	
7.785	-0.032	0.009	
7.790	0.108	0.006	
7.795	-0.022	0.011	
7.800	-0.063	0.011	
7.805	0.088	0.007	
7.810	0.052	0.011	
7.815	-0.075	0.016	
7.820	0.030	0.013	
7.825	0.101	0.013	
7.830	-0.055	0.018	
7.835	-0.020	0.016	
7.840	0.122	0.014	
7.845	0.003	0.020	
7.850	-0.049	0.023	
7.855	0.081	0.020	
7.860	0.033	0.021	
7.865	-0.077	0.021	
7.870	0.033	0.013	
7.875	0.076	0.010	
7.880	-0.078	0.011	
7.885	-0.040	0.005	
7.890	0.082	-0.003	
7.895	-0.038	-0.002	
7.900	-0.078	-0.005	
7.905	0.059	-0.012	
7.910	-0.005	-0.011	
7.915	-0.106	-0.011	
7.920	-0.011	-0.020	
7.925	0.056	-0.024	
7.930	-0.078	-0.020	
7.935	-0.046	-0.021	
7.940	0.081	-0.022	
7.945	-0.038	-0.015	
7.950	-0.086	-0.012	
7.955	0.046	-0.016	
7.960	0.006	-0.015	
7.965	-0.098	-0.013	
7.970	0.015	-0.018	
7.975	0.059	-0.018	
7.980	-0.081	-0.012	
7.985	-0.049	-0.014	
7.990	0.079	-0.017	
7.995	-0.037	-0.012	
8.000	-0.077	-0.011	
8.005	0.064	-0.014	
8.010	0.009	-0.010	
8.015	-0.100	-0.007	
8.020	0.010	-0.013	
8.025	0.067	-0.014	
8.030	-0.075	-0.008	
8.035	-0.034	-0.010	
8.040	0.113	-0.010	
8.045	-0.028	-0.001	
8.050	-0.081	0.003	
8.055	0.056	-0.002	
8.060	0.009	-0.002	
8.065	-0.098	-0.003	
8.070	0.007	-0.011	
8.075	0.068	-0.014	
8.080	-0.074	-0.009	
8.085	-0.037	-0.011	
8.090	0.101	-0.012	
8.095	-0.020	-0.003	
8.100	-0.078	0.001	
8.105	0.056	-0.003	
8.110	0.026	-0.002	
8.115	-0.090	0.000	
8.120	0.001	-0.006	
8.125	0.059	-0.009	
8.130	-0.064	-0.007	
8.135	-0.013	-0.008	
8.140	0.131	-0.005	
8.145	-0.023	0.008	
8.150	-0.064	0.013	
8.155	0.099	0.011	
8.160	0.062	0.017	
8.165	-0.061	0.025	
8.170	0.049	0.023	
8.175	0.096	0.024	
8.180	-0.060	0.029	
8.185	-0.031	0.023	
8.190	0.096	0.015	
8.195	-0.048	0.013	
8.200	-0.095	0.006	
8.205	0.020	-0.009	
8.210	-0.020	-0.018	
8.215	-0.113	-0.026	
8.220	-0.016	-0.037	
8.225	0.032	-0.040	
8.230	-0.095	-0.037	
8.235	-0.055	-0.038	
8.240	0.068	-0.038	
8.245	-0.051	-0.030	
8.250	-0.092	-0.026	
8.255	0.052	-0.028	
8.260	0.015	-0.022	
8.265	-0.078	-0.015	
8.270	-0.003	-0.016	
8.275	0.036	-0.015	
8.280	-0.095	-0.013	
8.285	-0.037	-0.019	
8.290	0.185	-0.017	
8.295	0.146	0.009	
8.300	0.197	0.051	
8.305	0.388	0.105	
8.310	0.246	0.169	
8.315	-0.006	0.209	
8.320	0.023	0.202	
8.325	0.026	0.164	
8.330	-0.106	0.114	
8.335	-0.071	0.056	
8.340	0.044	0.008	
8.345	-0.068	-0.019	
8.350	-0.110	-0.038	
8.355	-0.002	-0.054	
8.360	-0.048	-0.059	
8.365	-0.132	-0.062	
8.370	-0.037	-0.067	
8.375	0.012	-0.067	
8.380	-0.107	-0.060	
8.385	-0.064	-0.057	
8.390	0.061	-0.054	
8.395	-0.049	-0.042	
8.400	-0.080	-0.034	
8.405	0.062	-0.030	
8.410	0.000	-0.021	
8.415	-0.100	-0.014	
8.420	0.007	-0.017	
8.425	0.068	-0.016	
8.430	-0.075	-0.009	
8.435	-0.034	-0.010	
8.440	0.094	-0.010	
8.445	-0.034	-0.003	
8.450	-0.071	-0.001	
8.455	0.085	-0.004	
8.460	0.006	0.000	
8.465	-0.086	0.003	
8.470	0.042	-0.002	
8.475	0.088	-0.000	
8.480	-0.064	0.008	
8.485	-0.022	0.008	
8.490	0.114	0.006	
8.495	-0.017	0.013	
8.500	-0.057	0.015	
8.505	0.116	0.013	
8.510	0.055	0.020	
8.515	-0.060	0.027	
8.520	0.056	0.025	
8.525	0.097	0.027	
8.530	-0.057	0.031	
8.535	-0.011	0.027	
8.540	0.137	0.022	
8.545	0.007	0.028	
8.550	-0.045	0.031	
8.555	0.093	0.027	
8.560	0.029	0.028	
8.565	-0.081	0.027	
8.570	0.024	0.016	
8.575	0.065	0.009	
8.580	-0.075	0.008	
8.585	-0.043	-0.000	
8.590	0.079	-0.008	
8.595	-0.049	-0.007	
8.600	-0.086	-0.010	
8.605	0.044	-0.018	
8.610	0.000	-0.019	
8.615	-0.092	-0.018	
8.620	0.013	-0.022	
8.625	0.049	-0.020	
8.630	-0.083	-0.015	
8.635	-0.042	-0.017	
8.640	0.088	-0.018	
8.645	-0.042	-0.011	
8.650	-0.080	-0.009	
8.655	0.050	-0.013	
8.660	0.000	-0.012	
8.665	-0.087	-0.011	
8.670	0.015	-0.016	
8.675	0.067	-0.015	
8.680	-0.074	-0.008	
8.685	-0.025	-0.008	
8.690	0.116	-0.007	
8.695	-0.032	0.003	
8.700	-0.075	0.006	
8.705	0.061	0.001	
8.710	0.010	0.001	
8.715	-0.089	0.000	
8.720	0.017	-0.007	
8.725	0.076	-0.008	
8.730	-0.069	-0.003	
8.735	-0.038	-0.004	
8.740	0.085	-0.007	
8.745	-0.037	-0.003	
8.750	-0.083	-0.003	
8.755	0.055	-0.010	
8.760	0.006	-0.010	
8.765	-0.101	-0.010	
8.770	0.012	-0.016	
8.775	0.061	-0.017	
8.780	-0.078	-0.012	
8.785	-0.037	-0.013	
8.790	0.085	-0.015	
8.795	-0.040	-0.008	
8.800	-0.081	-0.007	
8.805	0.065	-0.012	
8.810	0.017	-0.009	
8.815	-0.081	-0.005	
8.820	0.026	-0.007	
8.825	0.087	-0.005	
8.830	-0.054	0.004	
8.835	-0.006	0.006	
8.840	0.134	0.010	
8.845	0.001	0.021	
8.850	-0.051	0.027	
8.855	0.113	0.026	
8.860	0.036	0.030	
8.865	-0.072	0.032	
8.870	0.041	0.024	
8.875	0.078	0.019	
8.880	-0.071	0.019	
8.885	-0.038	0.011	
8.890	0.082	0.002	
8.895	-0.052	0.001	
8.900	-0.095	-0.006	
8.905	0.039	-0.017	
8.910	-0.013	-0.021	
8.915	-0.101	-0.023	
8.920	-0.014	-0.030	
8.925	0.030	-0.033	
8.930	-0.100	-0.030	
8.935	-0.069	-0.035	
8.940	0.047	-0.039	
8.945	-0.060	-0.036	
8.950	-0.087	-0.035	
8.955	0.056	-0.036	
8.960	-0.002	-0.029	
8.965	-0.104	-0.023	
8.970	-0.005	-0.025	
8.975	0.049	-0.025	
8.980	-0.052	-0.018	
8.985	0.078	-0.011	
8.990	0.314	0.014	
8.995	0.247	0.068	
9.000	0.171	0.127	
9.005	0.264	0.172	
9.010	0.065	0.198	
9.015	-0.110	0.187	
9.020	-0.049	0.138	
9.025	-0.017	0.078	
9.030	-0.115	0.025	
9.035	-0.061	-0.020	
9.040	0.041	-0.048	
9.045	-0.071	-0.055	
9.050	-0.103	-0.057	
9.055	0.032	-0.059	
9.060	-0.008	-0.052	
9.065	-0.103	-0.042	
9.070	-0.009	-0.040	
9.075	0.041	-0.035	
9.080	-0.095	-0.028	
9.085	-0.063	-0.028	
9.090	0.068	-0.031	
9.095	-0.057	-0.025	
9.100	-0.084	-0.024	
9.105	0.058	-0.027	
9.110	0.001	-0.021	
9.115	-0.092	-0.016	
9.120	0.010	-0.019	
9.125	0.061	-0.017	
9.130	-0.071	-0.010	
9.135	-0.028	-0.010	
9.140	0.091	-0.010	
9.145	-0.031	-0.002	
9.150	-0.063	0.001	
9.155	0.093	-0.001	
9.160	0.026	0.005	
9.165	-0.084	0.010	
9.170	0.033	0.005	
9.175	0.087	0.005	
9.180	-0.061	0.011	
9.185	-0.019	0.009	
9.190	0.122	0.008	
9.195	-0.017	0.015	
9.200	-0.064	0.017	
9.205	0.088	0.012	
9.210	0.030	0.014	
9.215	-0.080	0.016	
9.220	0.032	0.009	
9.225	0.075	0.007	
9.230	-0.060	0.010	
9.235	-0.011	0.007	
9.240	0.120	0.006	
9.245	-0.017	0.014	
9.250	-0.057	0.017	
9.255	0.081	0.013	
9.260	0.010	0.014	
9.265	-0.098	0.012	
9.270	0.021	0.001	
9.275	0.050	-0.005	
9.280	-0.083	-0.005	
9.285	-0.043	-0.011	
9.290	0.075	-0.017	
9.295	-0.052	-0.014	
9.300	-0.078	-0.015	
9.305	0.056	-0.020	
9.310	0.007	-0.016	
9.315	-0.090	-0.013	
9.320	0.010	-0.016	
9.325	0.044	-0.016	
9.330	-0.078	-0.012	
9.335	-0.042	-0.015	
9.340	0.075	-0.018	
9.345	-0.054	-0.013	
9.350	-0.080	-0.014	
9.355	0.064	-0.018	
9.360	-0.002	-0.015	
9.365	-0.097	-0.012	
9.370	0.013	-0.017	
9.375	0.058	-0.017	
9.380	-0.078	-0.011	
9.385	-0.026	-0.012	
9.390	0.105	-0.012	
9.395	-0.031	-0.002	
9.400	-0.057	0.002	
9.405	0.075	0.001	
9.410	0.009	0.005	
9.415	-0.086	0.006	
9.420	0.026	-0.001	
9.425	0.068	-0.002	
9.430	-0.072	0.001	
9.435	-0.032	-0.002	
9.440	0.085	-0.006	
9.445	-0.051	-0.002	
9.450	-0.074	-0.004	
9.455	0.072	-0.010	
9.460	0.017	-0.008	
9.465	-0.075	-0.003	
9.470	0.015	-0.006	
9.475	0.035	-0.007	
9.480	-0.087	-0.006	
9.485	-0.031	-0.012	
9.490	0.087	-0.016	
9.495	-0.045	-0.010	
9.500	-0.064	-0.009	
9.505	0.076	-0.011	
9.510	0.012	-0.005	
9.515	-0.084	-0.001	
9.520	0.013	-0.005	
9.525	0.056	-0.006	
9.530	-0.074	-0.003	
9.535	-0.014	-0.006	
9.540	0.104	-0.006	
9.545	-0.040	0.002	
9.550	-0.064	0.004	
9.555	0.101	0.001	
9.560	0.041	0.007	
9.565	-0.064	0.015	
9.570	0.035	0.013	
9.575	0.096	0.015	
9.580	-0.049	0.021	
9.585	-0.002	0.020	
9.590	0.125	0.019	
9.595	-0.022	0.026	
9.600	-0.060	0.025	
9.605	0.081	0.017	
9.610	0.020	0.016	
9.615	-0.090	0.014	
9.620	0.017	0.003	
9.625	0.036	-0.003	
9.630	-0.089	-0.006	
9.635	-0.057	-0.015	
9.640	0.072	-0.023	
9.645	-0.055	-0.021	
9.650	-0.086	-0.022	
9.655	0.050	-0.027	
9.660	-0.009	-0.024	
9.665	-0.100	-0.021	
9.670	0.018	-0.025	
9.675	0.049	-0.023	
9.680	-0.092	-0.016	
9.685	-0.045	-0.019	
9.690	0.068	-0.021	
9.695	-0.061	-0.017	
9.700	-0.084	-0.019	
9.705	0.070	-0.023	
9.710	0.049	-0.016	
9.715	0.012	-0.002	
9.720	0.281	0.022	
9.725	0.382	0.074	
9.730	0.143	0.140	
9.735	0.122	0.184	
9.740	0.146	0.196	
9.745	-0.060	0.182	
9.750	-0.122	0.137	
9.755	0.000	0.076	
9.760	-0.040	0.024	
9.765	-0.118	-0.015	
9.770	-0.009	-0.045	
9.775	0.013	-0.057	
9.780	-0.109	-0.056	
9.785	-0.057	-0.058	
9.790	0.053	-0.056	
9.795	-0.069	-0.045	
9.800	-0.097	-0.040	
9.805	0.039	-0.040	
9.810	-0.009	-0.034	
9.815	-0.098	-0.029	
9.820	0.013	-0.029	
9.825	0.053	-0.025	
9.830	-0.093	-0.017	
9.835	-0.043	-0.018	
9.840	0.072	-0.020	
9.845	-0.052	-0.016	
9.850	-0.075	-0.015	
9.855	0.075	-0.018	
9.860	0.013	-0.012	
9.865	-0.087	-0.006	
9.870	0.021	-0.009	
9.875	0.059	-0.008	
9.880	-0.074	-0.003	
9.885	-0.023	-0.005	
9.890	0.105	-0.006	
9.895	-0.016	0.003	
9.900	-0.052	0.007	
9.905	0.087	0.007	
9.910	0.017	0.012	
9.915	-0.080	0.014	
9.920	0.038	0.007	
9.925	0.082	0.006	
9.930	-0.055	0.012	
9.935	-0.006	0.010	
9.940	0.107	0.010	
9.945	-0.028	0.016	
9.950	-0.054	0.016	
9.955	0.090	0.011	
9.960	0.013	0.013	
9.965	-0.066	0.014	
9.970	0.067	0.009	
9.975	0.073	0.012	
9.980	-0.071	0.018	
9.985	-0.025	0.013	
9.990	0.091	0.007	
9.995	-0.043	0.008	
10.000	-0.072	0.004	
10.005	0.067	-0.004	
10.010	-0.003	-0.005	
10.015	-0.097	-0.006	
10.020	0.006	-0.014	
10.025	0.042	-0.018	
10.030	-0.080	-0.015	
10.035	-0.032	-0.018	
10.040	0.076	-0.020	
10.045	-0.058	-0.014	
10.050	-0.081	-0.014	
10.055	0.050	-0.019	
10.060	-0.013	-0.018	
10.065	-0.103	-0.018	
10.070	0.007	-0.024	
10.075	0.044	-0.025	
10.080	-0.083	-0.020	
10.085	-0.029	-0.021	
10.090	0.085	-0.020	
10.095	-0.046	-0.012	
10.100	-0.063	-0.008	
10.105	0.093	-0.009	
10.110	0.015	-0.001	
10.115	-0.086	0.004	
10.120	0.020	0.000	
10.125	0.064	-0.001	
10.130	-0.071	0.002	
10.135	-0.022	-0.001	
10.140	0.094	-0.004	
10.145	-0.040	0.002	
10.150	-0.064	0.002	
10.155	0.075	-0.003	
10.160	0.001	-0.001	
10.165	-0.089	-0.000	
10.170	0.027	-0.007	
10.175	0.061	-0.007	
10.180	-0.069	-0.003	
10.185	-0.017	-0.004	
10.190	0.079	-0.005	
10.195	-0.057	-0.001	
10.200	-0.072	-0.004	
10.205	0.076	-0.010	
10.210	0.001	-0.008	
10.215	-0.101	-0.006	
10.220	0.009	-0.013	
10.225	0.047	-0.016	
10.230	-0.086	-0.013	
10.235	-0.035	-0.017	
10.240	0.088	-0.019	
10.245	-0.040	-0.012	
10.250	-0.075	-0.009	
10.255	0.070	-0.012	
10.260	0.000	-0.008	
10.265	-0.092	-0.005	
10.270	0.027	-0.011	
10.275	0.047	-0.011	
10.280	-0.084	-0.007	
10.285	-0.042	-0.012	
10.290	0.070	-0.016	
10.295	-0.049	-0.013	
10.300	-0.068	-0.014	
10.305	0.076	-0.016	
10.310	0.020	-0.010	
10.315	-0.069	-0.003	
10.320	0.055	-0.002	
10.325	0.081	0.005	
10.330	-0.064	0.014	
10.335	-0.014	0.013	
10.340	0.125	0.012	
10.345	-0.019	0.019	
10.350	-0.051	0.021	
10.355	0.104	0.017	
10.360	0.018	0.020	
10.365	-0.081	0.021	
10.370	0.041	0.012	
10.375	0.056	0.009	
10.380	-0.078	0.009	
10.385	-0.037	0.001	
10.390	0.072	-0.007	
10.395	-0.066	-0.008	
10.400	-0.089	-0.013	
10.405	0.036	-0.023	
10.410	-0.020	-0.026	
10.415	-0.100	-0.027	
10.420	0.006	-0.032	
10.425	0.039	-0.031	
10.430	-0.092	-0.025	
10.435	-0.034	-0.026	
10.440	0.084	-0.025	
10.445	-0.048	-0.016	
10.450	-0.071	-0.012	
10.455	0.065	-0.014	
10.460	-0.011	-0.010	
10.465	-0.084	-0.008	
10.470	0.097	-0.009	
10.475	0.229	0.007	
10.480	0.146	0.047	
10.485	0.272	0.094	
10.490	0.353	0.148	
10.495	0.082	0.196	
10.500	-0.046	0.205	
10.505	0.029	0.173	
10.510	-0.061	0.123	
10.515	-0.139	0.065	
10.520	-0.032	0.007	
10.525	0.006	-0.032	
10.530	-0.106	-0.051	
10.535	-0.046	-0.062	
10.540	0.039	-0.064	
10.545	-0.084	-0.055	
10.550	-0.103	-0.051	
10.555	0.021	-0.052	
10.560	-0.035	-0.048	
10.565	-0.119	-0.044	
10.570	0.006	-0.047	
10.575	0.032	-0.043	
10.580	-0.095	-0.034	
10.585	-0.043	-0.033	
10.590	0.075	-0.031	
10.595	-0.052	-0.022	
10.600	-0.072	-0.018	
10.605	0.085	-0.018	
10.610	-0.003	-0.010	
10.615	-0.089	-0.005	
10.620	0.030	-0.008	
10.625	0.056	-0.007	
10.630	-0.084	-0.003	
10.635	-0.023	-0.006	
10.640	0.107	-0.008	
10.645	-0.032	0.000	
10.650	-0.055	0.003	
10.655	0.102	0.002	
10.660	0.024	0.010	
10.665	-0.068	0.015	
10.670	0.058	0.013	
10.675	0.093	0.016	
10.680	-0.054	0.023	
10.685	0.000	0.022	
10.690	0.124	0.020	
10.695	-0.016	0.026	
10.700	-0.032	0.027	
10.705	0.131	0.025	
10.710	0.047	0.032	
10.715	-0.051	0.038	
10.720	0.076	0.035	
10.725	0.108	0.036	
10.730	-0.045	0.042	
10.735	-0.002	0.038	
10.740	0.116	0.032	
10.745	-0.022	0.033	
10.750	-0.042	0.028	
10.755	0.096	0.021	
10.760	0.010	0.021	
10.765	-0.084	0.018	
10.770	0.033	0.008	
10.775	0.050	0.003	
10.780	-0.081	0.002	
10.785	-0.031	-0.005	
10.790	0.091	-0.010	
10.795	-0.057	-0.006	
10.800	-0.078	-0.008	
10.805	0.058	-0.014	
10.810	-0.014	-0.014	
10.815	-0.092	-0.014	
10.820	0.030	-0.019	
10.825	0.041	-0.018	
10.830	-0.095	-0.013	
10.835	-0.038	-0.017	
10.840	0.070	-0.020	
10.845	-0.061	-0.016	
10.850	-0.075	-0.017	
10.855	0.076	-0.021	
10.860	-0.002	-0.015	
10.865	-0.089	-0.010	
10.870	0.030	-0.013	
10.875	0.044	-0.011	
10.880	-0.092	-0.007	
10.885	-0.037	-0.012	
10.890	0.076	-0.016	
10.895	-0.046	-0.012	
10.900	-0.064	-0.012	
10.905	0.056	-0.015	
10.910	-0.013	-0.012	
10.915	-0.104	-0.012	
10.920	0.010	-0.019	
10.925	0.036	-0.021	
10.930	-0.086	-0.019	
10.935	-0.032	-0.022	
10.940	0.076	-0.023	
10.945	-0.055	-0.016	
10.950	-0.068	-0.014	
10.955	0.065	-0.017	
10.960	-0.014	-0.013	
10.965	-0.095	-0.011	
10.970	0.027	-0.016	
10.975	0.020	-0.017	
10.980	-0.104	-0.016	
10.985	-0.042	-0.023	
10.990	0.064	-0.028	
10.995	-0.060	-0.024	
11.000	-0.072	-0.024	
11.005	0.064	-0.025	
11.010	-0.003	-0.019	
11.015	-0.083	-0.014	
11.020	0.039	-0.015	
11.025	0.052	-0.010	
11.030	-0.083	-0.003	
11.035	-0.037	-0.006	
11.040	0.084	-0.010	
11.045	-0.046	-0.006	
11.050	-0.066	-0.006	
11.055	0.082	-0.010	
11.060	0.003	-0.005	
11.065	-0.083	-0.002	
11.070	0.042	-0.005	
11.075	0.078	-0.002	
11.080	-0.060	0.006	
11.085	0.001	0.007	
11.090	0.110	0.009	
11.095	-0.038	0.016	
11.100	-0.055	0.016	
11.105	0.113	0.011	
11.110	0.018	0.015	
11.115	-0.087	0.018	
11.120	0.032	0.010	
11.125	0.038	0.005	
11.130	-0.087	0.002	
11.135	-0.032	-0.007	
11.140	0.076	-0.014	
11.145	-0.063	-0.012	
11.150	-0.081	-0.015	
11.155	0.047	-0.022	
11.160	-0.029	-0.022	
11.165	-0.113	-0.024	
11.170	-0.003	-0.032	
11.175	0.032	-0.034	
11.180	-0.097	-0.031	
11.185	-0.054	-0.033	
11.190	0.053	-0.035	
11.195	-0.074	-0.031	
11.200	-0.083	-0.031	
11.205	0.065	-0.033	
11.210	-0.009	-0.027	
11.215	-0.106	-0.021	
11.220	-0.005	-0.025	
11.225	0.038	-0.026	
11.230	-0.055	-0.021	
11.235	0.097	-0.013	
11.240	0.328	0.014	
11.245	0.241	0.071	
11.250	0.203	0.133	
11.255	0.305	0.183	
11.260	0.067	0.214	
11.265	-0.110	0.205	
11.270	-0.032	0.154	
11.275	-0.017	0.092	
11.280	-0.118	0.036	
11.285	-0.058	-0.013	
11.290	0.049	-0.043	
11.295	-0.074	-0.051	
11.300	-0.090	-0.055	
11.305	0.030	-0.057	
11.310	-0.045	-0.051	
11.315	-0.126	-0.047	
11.320	-0.005	-0.050	
11.325	0.027	-0.048	
11.330	-0.104	-0.040	
11.335	-0.048	-0.039	
11.340	0.059	-0.038	
11.345	-0.072	-0.031	
11.350	-0.084	-0.029	
11.355	0.050	-0.032	
11.360	-0.009	-0.027	
11.365	-0.078	-0.022	
11.370	0.035	-0.021	
11.375	0.055	-0.015	
11.380	-0.078	-0.006	
11.385	-0.013	-0.006	
11.390	0.114	-0.004	
11.395	-0.029	0.006	
11.400	-0.057	0.010	
11.405	0.090	0.008	
11.410	0.009	0.011	
11.415	-0.077	0.012	
11.420	0.061	0.007	
11.425	0.079	0.008	
11.430	-0.068	0.015	
11.435	-0.006	0.012	
11.440	0.110	0.010	
11.445	-0.046	0.015	
11.450	-0.057	0.013	
11.455	0.093	0.006	
11.460	0.020	0.009	
11.465	-0.077	0.011	
11.470	0.046	0.006	
11.475	0.067	0.006	
11.480	-0.071	0.010	
11.485	0.003	0.007	
11.490	0.130	0.007	
11.495	-0.028	0.017	
11.500	-0.049	0.019	
11.505	0.096	0.016	
11.510	0.007	0.018	
11.515	-0.074	0.018	
11.520	0.047	0.010	
11.525	0.075	0.009	
11.530	-0.080	0.012	
11.535	-0.020	0.006	
11.540	0.082	0.001	
11.545	-0.052	0.002	
11.550	-0.069	-0.002	
11.555	0.084	-0.008	
11.560	0.006	-0.005	
11.565	-0.077	-0.002	
11.570	0.056	-0.004	
11.575	0.073	0.001	
11.580	-0.081	0.008	
11.585	-0.013	0.006	
11.590	0.114	0.004	
11.595	-0.040	0.010	
11.600	-0.058	0.011	
11.605	0.085	0.005	
11.610	0.009	0.007	
11.615	-0.086	0.008	
11.620	0.050	0.001	
11.625	0.062	0.002	
11.630	-0.072	0.006	
11.635	-0.006	0.003	
11.640	0.119	0.003	
11.645	-0.029	0.011	
11.650	-0.035	0.015	
11.655	0.128	0.015	
11.660	0.036	0.024	
11.665	-0.063	0.030	
11.670	0.042	0.026	
11.675	0.055	0.022	
11.680	-0.066	0.021	
11.685	-0.019	0.011	
11.690	0.082	0.004	
11.695	-0.049	0.004	
11.700	-0.054	-0.000	
11.705	0.079	-0.006	
11.710	-0.006	-0.003	
11.715	-0.077	-0.001	
11.720	0.052	-0.005	
11.725	0.073	-0.002	
11.730	-0.080	0.006	
11.735	-0.016	0.004	
11.740	0.096	0.001	
11.745	-0.049	0.006	
11.750	-0.068	0.004	
11.755	0.079	-0.003	
11.760	0.003	-0.001	
11.765	-0.081	-0.000	
11.770	0.044	-0.005	
11.775	0.061	-0.003	
11.780	-0.072	0.003	
11.785	-0.005	0.001	
11.790	0.124	0.002	
11.795	-0.020	0.012	
11.800	-0.026	0.018	
11.805	0.133	0.020	
11.810	0.030	0.030	
11.815	-0.055	0.035	
11.820	0.067	0.031	
11.825	0.079	0.031	
11.830	-0.055	0.032	
11.835	0.007	0.026	
11.840	0.113	0.022	
11.845	-0.049	0.024	
11.850	-0.069	0.018	
11.855	0.070	0.007	
11.860	-0.019	0.002	
11.865	-0.098	-0.004	
11.870	0.001	-0.016	
11.875	0.004	-0.023	
11.880	-0.126	-0.027	
11.885	-0.071	-0.039	
11.890	0.010	-0.050	
11.895	-0.115	-0.053	
11.900	-0.135	-0.061	
11.905	-0.022	-0.073	
11.910	-0.074	-0.077	
11.915	-0.135	-0.078	
11.920	-0.025	-0.082	
11.925	-0.008	-0.077	
11.930	-0.121	-0.068	
11.935	-0.060	-0.065	
11.940	0.042	-0.061	
11.945	-0.077	-0.050	
11.950	-0.101	-0.045	
11.955	0.036	-0.046	
11.960	-0.009	-0.039	
11.965	-0.034	-0.030	
11.970	0.206	-0.013	
11.975	0.331	0.030	
11.980	0.139	0.092	
11.985	0.143	0.140	
11.990	0.159	0.165	
11.995	-0.061	0.165	
12.000	-0.110	0.131	
12.005	-0.008	0.077	
12.010	-0.066	0.027	
12.015	-0.130	-0.015	
12.020	-0.014	-0.048	
12.025	-0.002	-0.063	
12.030	-0.103	-0.065	
12.035	-0.051	-0.065	
12.040	0.035	-0.061	
12.045	-0.083	-0.051	
12.050	-0.090	-0.047	
12.055	0.033	-0.047	
12.060	-0.038	-0.041	
12.065	-0.109	-0.037	
12.070	0.024	-0.040	
12.075	0.032	-0.035	
12.080	-0.083	-0.026	
12.085	-0.014	-0.023	
12.090	0.091	-0.019	
12.095	-0.037	-0.007	
12.100	-0.057	-0.002	
12.105	0.088	-0.002	
12.110	-0.005	0.004	
12.115	-0.075	0.006	
12.120	0.041	0.001	
12.125	0.044	0.000	
12.130	-0.077	0.003	
12.135	0.000	-0.002	
12.140	0.120	-0.002	
12.145	-0.019	0.009	
12.150	-0.043	0.014	
12.155	0.094	0.014	
12.160	0.007	0.018	
12.165	-0.054	0.019	
12.170	0.075	0.015	
12.175	0.072	0.018	
12.180	-0.055	0.024	
12.185	0.024	0.021	
12.190	0.136	0.022	
12.195	-0.026	0.031	
12.200	-0.045	0.031	
12.205	0.102	0.025	
12.210	0.013	0.025	
12.215	-0.064	0.024	
12.220	0.079	0.017	
12.225	0.084	0.019	
12.230	-0.068	0.024	
12.235	0.003	0.020	
12.240	0.110	0.017	
12.245	-0.045	0.020	
12.250	-0.063	0.016	
12.255	0.088	0.007	
12.260	-0.009	0.007	
12.265	-0.090	0.004	
12.270	0.049	-0.005	
12.275	0.056	-0.005	
12.280	-0.081	-0.001	
12.285	-0.026	-0.004	
12.290	0.084	-0.008	
12.295	-0.052	-0.004	
12.300	-0.063	-0.005	
12.305	0.091	-0.009	
12.310	0.012	-0.003	
12.315	-0.084	0.002	
12.320	0.021	-0.002	
12.325	0.038	-0.004	
12.330	-0.087	-0.004	
12.335	-0.023	-0.010	
12.340	0.079	-0.014	
12.345	-0.051	-0.010	
12.350	-0.063	-0.009	
12.355	0.079	-0.012	
12.360	-0.008	-0.007	
12.365	-0.078	-0.004	
12.370	0.055	-0.007	
12.375	0.078	-0.002	
12.380	-0.074	0.007	
12.385	0.003	0.007	
12.390	0.110	0.008	
12.395	-0.048	0.015	
12.400	-0.061	0.013	
12.405	0.081	0.006	
12.410	-0.009	0.005	
12.415	-0.086	0.003	
12.420	0.038	-0.005	
12.425	0.055	-0.006	
12.430	-0.083	-0.003	
12.435	-0.025	-0.007	
12.440	0.082	-0.010	
12.445	-0.049	-0.005	
12.450	-0.057	-0.005	
12.455	0.088	-0.008	
12.460	0.001	-0.002	
12.465	-0.075	0.002	
12.470	0.035	-0.002	
12.475	0.052	-0.001	
12.480	-0.084	0.002	
12.485	-0.025	-0.004	
12.490	0.082	-0.008	
12.495	-0.055	-0.005	
12.500	-0.054	-0.006	
12.505	0.117	-0.008	
12.510	0.017	0.002	
12.515	-0.058	0.011	
12.520	0.067	0.011	
12.525	0.065	0.016	
12.530	-0.069	0.022	
12.535	0.018	0.018	
12.540	0.137	0.017	
12.545	-0.032	0.026	
12.550	-0.049	0.026	
12.555	0.075	0.019	
12.560	-0.020	0.016	
12.565	-0.092	0.009	
12.570	0.027	-0.005	
12.575	0.020	-0.011	
12.580	-0.104	-0.014	
12.585	-0.035	-0.023	
12.590	0.055	-0.029	
12.595	-0.077	-0.027	
12.600	-0.077	-0.029	
12.605	0.070	-0.032	
12.610	-0.020	-0.025	
12.615	-0.110	-0.021	
12.620	0.013	-0.026	
12.625	0.021	-0.026	
12.630	-0.103	-0.024	
12.635	-0.029	-0.028	
12.640	0.070	-0.029	
12.645	-0.074	-0.023	
12.650	-0.083	-0.023	
12.655	0.061	-0.027	
12.660	0.009	-0.022	
12.665	-0.008	-0.012	
12.670	0.236	0.006	
12.675	0.347	0.051	
12.680	0.160	0.114	
12.685	0.160	0.162	
12.690	0.172	0.186	
12.695	-0.054	0.184	
12.700	-0.106	0.147	
12.705	-0.026	0.089	
12.710	-0.087	0.032	
12.715	-0.132	-0.017	
12.720	-0.008	-0.055	
12.725	0.001	-0.070	
12.730	-0.115	-0.070	
12.735	-0.045	-0.070	
12.740	0.047	-0.064	
12.745	-0.086	-0.051	
12.750	-0.081	-0.045	
12.755	0.052	-0.042	
12.760	-0.034	-0.034	
12.765	-0.109	-0.029	
12.770	0.012	-0.033	
12.775	0.029	-0.031	
12.780	-0.090	-0.025	
12.785	-0.019	-0.026	
12.790	0.085	-0.023	
12.795	-0.045	-0.013	
12.800	-0.063	-0.008	
12.805	0.085	-0.008	
12.810	-0.017	-0.003	
12.815	-0.107	-0.002	
12.820	0.024	-0.011	
12.825	0.035	-0.014	
12.830	-0.083	-0.013	
12.835	-0.005	-0.016	
12.840	0.094	-0.015	
12.845	-0.043	-0.005	
12.850	-0.040	-0.000	
12.855	0.119	0.002	
12.860	0.020	0.012	
12.865	-0.063	0.020	
12.870	0.079	0.018	
12.875	0.087	0.023	
12.880	-0.057	0.030	
12.885	0.018	0.027	
12.890	0.134	0.026	
12.895	-0.020	0.033	
12.900	-0.042	0.033	
12.905	0.122	0.028	
12.910	0.012	0.030	
12.915	-0.066	0.029	
12.920	0.052	0.020	
12.925	0.067	0.017	
12.930	-0.077	0.017	
12.935	0.001	0.010	
12.940	0.105	0.006	
12.945	-0.048	0.011	
12.950	-0.055	0.009	
12.955	0.081	0.003	
12.960	-0.011	0.004	
12.965	-0.087	0.002	
12.970	0.029	-0.006	
12.975	0.030	-0.009	
12.980	-0.095	-0.009	
12.985	-0.023	-0.016	
12.990	0.070	-0.020	
12.995	-0.069	-0.016	
13.000	-0.074	-0.017	
13.005	0.068	-0.022	
13.010	-0.013	-0.018	
13.015	-0.093	-0.015	
13.020	0.033	-0.018	
13.025	0.038	-0.016	
13.030	-0.087	-0.011	
13.035	-0.019	-0.014	
13.040	0.087	-0.014	
13.045	-0.061	-0.008	
13.050	-0.063	-0.007	
13.055	0.068	-0.011	
13.060	-0.020	-0.009	
13.065	-0.092	-0.009	
13.070	0.033	-0.015	
13.075	0.042	-0.015	
13.080	-0.087	-0.010	
13.085	-0.017	-0.013	
13.090	0.088	-0.014	
13.095	-0.054	-0.006	
13.100	-0.052	-0.005	
13.105	0.097	-0.006	
13.110	0.007	0.001	
13.115	-0.077	0.006	
13.120	0.047	0.003	
13.125	0.047	0.004	
13.130	-0.089	0.006	
13.135	-0.020	-0.001	
13.140	0.068	-0.007	
13.145	-0.057	-0.006	
13.150	-0.060	-0.009	
13.155	0.078	-0.014	
13.160	-0.009	-0.009	
13.165	-0.084	-0.007	
13.170	0.050	-0.010	
13.175	0.061	-0.006	
13.180	-0.086	0.001	
13.185	-0.026	-0.002	
13.190	0.076	-0.006	
13.195	-0.057	-0.004	
13.200	-0.058	-0.006	
13.205	0.101	-0.010	
13.210	0.023	-0.002	
13.215	-0.063	0.006	
13.220	0.062	0.007	
13.225	0.073	0.012	
13.230	-0.064	0.019	
13.235	0.017	0.017	
13.240	0.136	0.018	
13.245	-0.017	0.028	
13.250	-0.026	0.031	
13.255	0.110	0.028	
13.260	0.004	0.031	
13.265	-0.075	0.029	
13.270	0.032	0.017	
13.275	0.039	0.009	
13.280	-0.095	0.005	
13.285	-0.032	-0.007	
13.290	0.056	-0.016	
13.295	-0.075	-0.018	
13.300	-0.080	-0.023	
13.305	0.050	-0.030	
13.310	-0.031	-0.028	
13.315	-0.101	-0.027	
13.320	0.027	-0.031	
13.325	0.044	-0.028	
13.330	-0.092	-0.020	
13.335	-0.032	-0.020	
13.340	0.064	-0.021	
13.345	-0.064	-0.016	
13.350	-0.080	-0.017	
13.355	0.047	-0.023	
13.360	-0.019	-0.022	
13.365	-0.064	-0.020	
13.370	0.152	-0.015	
13.375	0.255	0.013	
13.380	0.168	0.063	
13.385	0.259	0.115	
13.390	0.287	0.164	
13.395	0.010	0.197	
13.400	-0.072	0.188	
13.405	0.020	0.143	
13.410	-0.055	0.091	
13.415	-0.115	0.039	
13.420	-0.017	-0.008	
13.425	0.000	-0.036	
13.430	-0.110	-0.049	
13.435	-0.049	-0.059	
13.440	0.042	-0.061	
13.445	-0.086	-0.053	
13.450	-0.092	-0.049	
13.455	0.042	-0.049	
13.460	-0.037	-0.042	
13.465	-0.109	-0.037	
13.470	0.007	-0.039	
13.475	0.023	-0.036	
13.480	-0.097	-0.030	
13.485	-0.038	-0.031	
13.490	0.065	-0.031	
13.495	-0.057	-0.024	
13.500	-0.068	-0.021	
13.505	0.059	-0.022	
13.510	-0.017	-0.017	
13.515	-0.087	-0.014	
13.520	0.027	-0.018	
13.525	0.035	-0.016	
13.530	-0.087	-0.012	
13.535	-0.025	-0.015	
13.540	0.082	-0.017	
13.545	-0.040	-0.010	
13.550	-0.034	-0.006	
13.555	0.110	-0.003	
13.560	0.007	0.008	
13.565	-0.069	0.015	
13.570	0.056	0.012	
13.575	0.068	0.013	
13.580	-0.064	0.017	
13.585	0.001	0.014	
13.590	0.116	0.012	
13.595	-0.026	0.018	
13.600	-0.035	0.019	
13.605	0.101	0.016	
13.610	0.012	0.020	
13.615	-0.063	0.021	
13.620	0.070	0.016	
13.625	0.081	0.017	
13.630	-0.061	0.023	
13.635	0.000	0.019	
13.640	0.105	0.016	
13.645	-0.037	0.019	
13.650	-0.054	0.017	
13.655	0.091	0.010	
13.660	-0.008	0.010	
13.665	-0.083	0.008	
13.670	0.039	-0.001	
13.675	0.042	-0.003	
13.680	-0.086	-0.002	
13.685	-0.023	-0.008	
13.690	0.076	-0.012	
13.695	-0.054	-0.008	
13.700	-0.051	-0.009	
13.705	0.104	-0.010	
13.710	-0.009	-0.002	
13.715	-0.077	0.003	
13.720	0.053	-0.000	
13.725	0.059	0.002	
13.730	-0.075	0.007	
13.735	-0.016	0.004	
13.740	0.094	0.001	
13.745	-0.060	0.004	
13.750	-0.064	0.001	
13.755	0.076	-0.006	
13.760	-0.008	-0.004	
13.765	-0.078	-0.004	
13.770	0.038	-0.009	
13.775	0.032	-0.008	
13.780	-0.086	-0.006	
13.785	-0.020	-0.011	
13.790	0.081	-0.013	
13.795	-0.066	-0.009	
13.800	-0.069	-0.010	
13.805	0.075	-0.015	
13.810	-0.037	-0.013	
13.815	-0.107	-0.014	
13.820	0.013	-0.023	
13.825	0.027	-0.026	
13.830	-0.097	-0.024	
13.835	-0.034	-0.027	
13.840	0.075	-0.028	
13.845	-0.068	-0.021	
13.850	-0.072	-0.020	
13.855	0.070	-0.022	
13.860	-0.011	-0.017	
13.865	-0.087	-0.013	
13.870	0.027	-0.016	
13.875	0.042	-0.014	
13.880	-0.086	-0.009	
13.885	-0.016	-0.012	
13.890	0.093	-0.012	
13.895	-0.049	-0.004	
13.900	-0.052	-0.002	
13.905	0.117	-0.003	
13.910	0.042	0.008	
13.915	-0.052	0.019	
13.920	0.084	0.022	
13.925	0.101	0.029	
13.930	-0.046	0.038	
13.935	0.033	0.038	
13.940	0.156	0.039	
13.945	0.001	0.048	
13.950	-0.022	0.050	
13.955	0.130	0.046	
13.960	0.027	0.047	
13.965	-0.074	0.045	
13.970	0.047	0.032	
13.975	0.042	0.022	
13.980	-0.092	0.015	
13.985	-0.045	0.001	
13.990	0.036	-0.013	
13.995	-0.093	-0.021	
14.000	-0.100	-0.032	
14.005	0.026	-0.044	
14.010	-0.049	-0.046	
14.015	-0.115	-0.048	
14.020	-0.016	-0.053	
14.025	-0.013	-0.053	
14.030	-0.116	-0.051	
14.035	-0.046	-0.054	
14.040	0.055	-0.052	
14.045	-0.078	-0.043	
14.050	-0.101	-0.039	
14.055	0.018	-0.043	
14.060	-0.057	-0.042	
14.065	-0.109	-0.043	
14.070	0.079	-0.045	
14.075	0.181	-0.027	
14.080	0.099	0.012	
14.085	0.243	0.058	
14.090	0.298	0.110	
14.095	0.007	0.155	
14.100	-0.069	0.159	
14.105	0.001	0.126	
14.110	-0.083	0.080	
14.115	-0.145	0.028	
14.120	-0.037	-0.022	
14.125	-0.016	-0.053	
14.130	-0.122	-0.067	
14.135	-0.064	-0.077	
14.140	0.027	-0.078	
14.145	-0.090	-0.069	
14.150	-0.086	-0.062	
14.155	0.042	-0.058	
14.160	-0.051	-0.047	
14.165	-0.119	-0.042	
14.170	-0.005	-0.045	
14.175	0.003	-0.044	
14.180	-0.112	-0.040	
14.185	-0.051	-0.044	
14.190	0.044	-0.045	
14.195	-0.072	-0.039	
14.200	-0.074	-0.037	
14.205	0.079	-0.036	
14.210	-0.008	-0.025	
14.215	-0.087	-0.016	
14.220	0.055	-0.015	
14.225	0.053	-0.008	
14.230	-0.086	0.000	
14.235	-0.009	-0.001	
14.240	0.099	-0.002	
14.245	-0.028	0.005	
14.250	-0.023	0.009	
14.255	0.136	0.012	
14.260	0.032	0.024	
14.265	-0.057	0.032	
14.270	0.084	0.030	
14.275	0.068	0.032	
14.280	-0.068	0.034	
14.285	0.030	0.027	
14.290	0.154	0.025	
14.295	-0.009	0.035	
14.300	-0.011	0.039	
14.305	0.157	0.040	
14.310	0.033	0.048	
14.315	-0.055	0.051	
14.320	0.101	0.044	
14.325	0.085	0.043	
14.330	-0.049	0.045	
14.335	0.018	0.038	
14.340	0.096	0.031	
14.345	-0.034	0.030	
14.350	-0.040	0.024	
14.355	0.087	0.015	
14.360	-0.019	0.013	
14.365	-0.100	0.007	
14.370	0.030	-0.005	
14.375	0.024	-0.011	
14.380	-0.103	-0.013	
14.385	-0.037	-0.022	
14.390	0.065	-0.027	
14.395	-0.069	-0.024	
14.400	-0.075	-0.024	
14.405	0.081	-0.027	
14.410	-0.014	-0.019	
14.415	-0.104	-0.015	
14.420	0.012	-0.019	
14.425	0.024	-0.021	
14.430	-0.109	-0.020	
14.435	-0.048	-0.027	
14.440	0.058	-0.032	
14.445	-0.068	-0.029	
14.450	-0.072	-0.029	
14.455	0.091	-0.029	
14.460	-0.011	-0.019	
14.465	-0.090	-0.012	
14.470	0.029	-0.013	
14.475	0.024	-0.012	
14.480	-0.115	-0.011	
14.485	-0.049	-0.020	
14.490	0.038	-0.029	
14.495	-0.095	-0.031	
14.500	-0.092	-0.038	
14.505	0.072	-0.044	
14.510	-0.011	-0.037	
14.515	-0.081	-0.028	
14.520	0.055	-0.024	
14.525	0.072	-0.013	
14.530	-0.071	0.001	
14.535	0.000	0.004	
14.540	0.096	0.006	
14.545	-0.055	0.012	
14.550	-0.058	0.010	
14.555	0.097	0.003	
14.560	-0.002	0.006	
14.565	-0.075	0.007	
14.570	0.056	0.002	
14.575	0.062	0.003	
14.580	-0.078	0.008	
14.585	0.003	0.005	
14.590	0.110	0.004	
14.595	-0.046	0.011	
14.600	-0.048	0.011	
14.605	0.117	0.008	
14.610	0.017	0.014	
14.615	-0.066	0.019	
14.620	0.084	0.016	
14.625	0.094	0.021	
14.630	-0.054	0.029	
14.635	0.020	0.028	
14.640	0.145	0.029	
14.645	-0.017	0.037	
14.650	-0.023	0.038	
14.655	0.136	0.035	
14.660	0.024	0.040	
14.665	-0.071	0.040	
14.670	0.046	0.029	
14.675	0.041	0.022	
14.680	-0.097	0.015	
14.685	-0.026	0.001	
14.690	0.073	-0.010	
14.695	-0.063	-0.010	
14.700	-0.072	-0.015	
14.705	0.073	-0.020	
14.710	-0.017	-0.017	
14.715	-0.097	-0.014	
14.720	0.033	-0.019	
14.725	0.041	-0.017	
14.730	-0.083	-0.011	
14.735	-0.013	-0.013	
14.740	0.099	-0.012	
14.745	-0.052	-0.003	
14.750	-0.075	-0.002	
14.755	0.059	-0.007	
14.760	-0.032	-0.008	
14.765	-0.089	-0.012	
14.770	0.099	-0.016	
14.775	0.217	-0.000	
14.780	0.139	0.038	
14.785	0.328	0.088	
14.790	0.394	0.151	
14.795	0.099	0.211	
14.800	-0.013	0.228	
14.805	0.073	0.201	
14.810	-0.037	0.155	
14.815	-0.101	0.099	
14.820	0.017	0.043	
14.825	0.010	0.005	
14.830	-0.124	-0.019	
14.835	-0.058	-0.041	
14.840	0.032	-0.053	
14.845	-0.087	-0.054	
14.850	-0.098	-0.055	
14.855	0.038	-0.057	
14.860	-0.046	-0.050	
14.865	-0.115	-0.046	
14.870	0.000	-0.048	
14.875	0.001	-0.045	
14.880	-0.113	-0.041	
14.885	-0.049	-0.044	
14.890	0.047	-0.045	
14.895	-0.078	-0.038	
14.900	-0.066	-0.036	
14.905	0.093	-0.034	
14.910	-0.020	-0.022	
14.915	-0.103	-0.014	
14.920	0.017	-0.018	
14.925	0.030	-0.018	
14.930	-0.092	-0.015	
14.935	-0.028	-0.020	
14.940	0.075	-0.021	
14.945	-0.054	-0.015	
14.950	-0.055	-0.013	
14.955	0.084	-0.014	
14.960	0.000	-0.006	
14.965	-0.074	-0.001	
14.970	0.056	-0.002	
14.975	0.068	0.002	
14.980	-0.068	0.010	
14.985	0.003	0.009	
14.990	0.104	0.009	
14.995	-0.046	0.015	
15.000	-0.051	0.013	
15.005	0.093	0.007	
15.010	0.007	0.010	
15.015	-0.069	0.011	
15.020	0.076	0.007	
15.025	0.062	0.010	
15.030	-0.081	0.016	
15.035	-0.009	0.010	
15.040	0.097	0.006	
15.045	-0.046	0.009	
15.050	-0.068	0.006	
15.055	0.073	-0.002	
15.060	-0.020	-0.002	
15.065	-0.098	-0.005	
15.070	0.026	-0.015	
15.075	0.020	-0.018	
15.080	-0.106	-0.018	
15.085	-0.035	-0.025	
15.090	0.058	-0.030	
15.095	-0.072	-0.026	
15.100	-0.074	-0.027	
15.105	0.067	-0.029	
15.110	-0.020	-0.023	
15.115	-0.097	-0.019	
15.120	0.030	-0.022	
15.125	0.029	-0.020	
15.130	-0.101	-0.016	
15.135	-0.019	-0.020	
15.140	0.072	-0.021	
15.145	-0.064	-0.015	
15.150	-0.063	-0.015	
15.155	0.091	-0.017	
15.160	0.003	-0.009	
15.165	-0.084	-0.003	
15.170	0.049	-0.005	
15.175	0.059	-0.001	
15.180	-0.081	0.004	
15.185	-0.006	0.001	
15.190	0.117	0.001	
15.195	-0.043	0.009	
15.200	-0.054	0.010	
15.205	0.097	0.006	
15.210	-0.003	0.010	
15.215	-0.086	0.010	
15.220	0.039	0.002	
15.225	0.042	-0.001	
15.230	-0.080	0.000	
15.235	-0.014	-0.006	
15.240	0.082	-0.008	
15.245	-0.060	-0.004	
15.250	-0.061	-0.006	
15.255	0.094	-0.010	
15.260	-0.009	-0.004	
15.265	-0.078	-0.001	
15.270	0.053	-0.004	
15.275	0.065	-0.001	
15.280	-0.078	0.006	
15.285	-0.016	0.003	
15.290	0.078	-0.000	
15.295	-0.060	0.002	
15.300	-0.061	-0.002	
15.305	0.102	-0.008	
15.310	0.015	-0.001	
15.315	-0.064	0.005	
15.320	0.082	0.006	
15.325	0.085	0.014	
15.330	-0.058	0.024	
15.335	0.024	0.024	
15.340	0.152	0.027	
15.345	-0.022	0.037	
15.350	-0.049	0.038	
15.355	0.104	0.031	
15.360	0.006	0.029	
15.365	-0.086	0.024	
15.370	0.030	0.011	
15.375	0.044	0.004	
15.380	-0.100	-0.000	
15.385	-0.037	-0.011	
15.390	0.056	-0.019	
15.395	-0.072	-0.020	
15.400	-0.071	-0.024	
15.405	0.052	-0.029	
15.410	-0.034	-0.026	
15.415	-0.101	-0.025	
15.420	0.013	-0.030	
15.425	0.032	-0.029	
15.430	-0.092	-0.024	
15.435	-0.028	-0.025	
15.440	0.064	-0.025	
15.445	-0.071	-0.019	
15.450	-0.081	-0.020	
15.455	0.041	-0.025	
15.460	-0.025	-0.025	
15.465	-0.048	-0.022	
15.470	0.203	-0.013	
15.475	0.308	0.024	
15.480	0.181	0.085	
15.485	0.258	0.142	
15.490	0.256	0.187	
15.495	-0.023	0.210	
15.500	-0.075	0.188	
15.505	0.023	0.136	
15.510	-0.045	0.082	
15.515	-0.107	0.032	
15.520	0.020	-0.009	
15.525	0.013	-0.031	
15.530	-0.112	-0.038	
15.535	-0.049	-0.047	
15.540	0.049	-0.050	
15.545	-0.078	-0.044	
15.550	-0.077	-0.041	
15.555	0.065	-0.040	
15.560	-0.035	-0.031	
15.565	-0.112	-0.026	
15.570	0.018	-0.030	
15.575	0.027	-0.029	
15.580	-0.095	-0.024	
15.585	-0.035	-0.026	
15.590	0.065	-0.027	
15.595	-0.060	-0.021	
15.600	-0.057	-0.019	
15.605	0.084	-0.019	
15.610	-0.011	-0.011	
15.615	-0.087	-0.006	
15.620	0.055	-0.008	
15.625	0.056	-0.005	
15.630	-0.078	0.002	
15.635	-0.020	-0.000	
15.640	0.088	-0.003	
15.645	-0.055	0.001	
15.650	-0.063	-0.001	
15.655	0.094	-0.006	
15.660	0.004	-0.001	
15.665	-0.072	0.003	
15.670	0.053	0.000	
15.675	0.053	0.003	
15.680	-0.077	0.008	
15.685	-0.008	0.003	
15.690	0.101	0.001	
15.695	-0.051	0.006	
15.700	-0.052	0.005	
15.705	0.107	0.002	
15.710	0.006	0.007	
15.715	-0.080	0.010	
15.720	0.047	0.005	
15.725	0.053	0.005	
15.730	-0.080	0.007	
15.735	-0.028	0.001	
15.740	0.078	-0.005	
15.745	-0.057	-0.004	
15.750	-0.068	-0.007	
15.755	0.085	-0.013	
15.760	-0.017	-0.009	
15.765	-0.097	-0.007	
15.770	0.020	-0.014	
15.775	0.029	-0.016	
15.780	-0.090	-0.015	
15.785	-0.034	-0.020	
15.790	0.061	-0.023	
15.795	-0.074	-0.020	
15.800	-0.071	-0.022	
15.805	0.062	-0.026	
15.810	-0.028	-0.022	
15.815	-0.106	-0.020	
15.820	0.017	-0.026	
15.825	0.029	-0.026	
15.830	-0.090	-0.022	
15.835	-0.025	-0.024	
15.840	0.058	-0.025	
15.845	-0.068	-0.019	
15.850	-0.061	-0.019	
15.855	0.084	-0.021	
15.860	-0.011	-0.013	
15.865	-0.086	-0.008	
15.870	0.049	-0.010	
15.875	0.055	-0.007	
15.880	-0.081	0.000	
15.885	-0.006	-0.002	
15.890	0.097	-0.002	
15.895	-0.042	0.005	
15.900	-0.049	0.006	
15.905	0.116	0.004	
15.910	0.013	0.011	
15.915	-0.068	0.016	
15.920	0.072	0.014	
15.925	0.093	0.017	
15.930	-0.051	0.026	
15.935	0.013	0.025	
15.940	0.107	0.024	
15.945	-0.042	0.028	
15.950	-0.040	0.024	
15.955	0.122	0.017	
15.960	0.021	0.021	
15.965	-0.066	0.024	
15.970	0.072	0.019	
15.975	0.090	0.021	
15.980	-0.054	0.027	
15.985	0.018	0.025	
15.990	0.128	0.025	
15.995	-0.022	0.031	
16.000	-0.025	0.032	
16.005	0.162	0.030	
16.010	0.056	0.040	
16.015	-0.061	0.048	
16.020	0.056	0.042	
16.025	0.065	0.037	
16.030	-0.074	0.033	
16.035	-0.023	0.020	
16.040	0.085	0.008	
16.045	-0.064	0.005	
16.050	-0.081	-0.003	
16.055	0.044	-0.015	
16.060	-0.040	-0.020	
16.065	-0.116	-0.026	
16.070	0.006	-0.036	
16.075	0.030	-0.038	
16.080	-0.110	-0.034	
16.085	-0.061	-0.037	
16.090	0.032	-0.041	
16.095	-0.086	-0.040	
16.100	-0.087	-0.042	
16.105	0.053	-0.045	
16.110	-0.032	-0.039	
16.115	-0.115	-0.034	
16.120	0.003	-0.038	
16.125	0.023	-0.037	
16.130	-0.077	-0.030	
16.135	0.064	-0.025	
16.140	0.310	-0.001	
16.145	0.204	0.052	
16.150	0.163	0.109	
16.155	0.256	0.153	
16.160	0.055	0.181	
16.165	-0.104	0.173	
16.170	-0.043	0.128	
16.175	-0.046	0.071	
16.180	-0.147	0.017	
16.185	-0.077	-0.032	
16.190	0.021	-0.063	
16.195	-0.103	-0.073	
16.200	-0.103	-0.078	
16.205	0.032	-0.078	
16.210	-0.049	-0.068	
16.215	-0.129	-0.060	
16.220	-0.014	-0.059	
16.225	-0.005	-0.056	
16.230	-0.121	-0.050	
16.235	-0.055	-0.052	
16.240	0.049	-0.052	
16.245	-0.080	-0.044	
16.250	-0.089	-0.041	
16.255	0.055	-0.042	
16.260	-0.023	-0.034	
16.265	-0.098	-0.028	
16.270	0.033	-0.029	
16.275	0.062	-0.022	
16.280	-0.081	-0.011	
16.285	-0.020	-0.010	
16.290	0.087	-0.008	
16.295	-0.043	-0.001	
16.300	-0.052	0.000	
16.305	0.084	-0.002	
16.310	0.003	0.003	
16.315	-0.081	0.005	
16.320	0.049	-0.000	
16.325	0.073	0.002	
16.330	-0.080	0.007	
16.335	-0.005	0.005	
16.340	0.128	0.004	
16.345	-0.032	0.013	
16.350	-0.046	0.016	
16.355	0.090	0.013	
16.360	-0.005	0.015	
16.365	-0.086	0.013	
16.370	0.056	0.004	
16.375	0.058	0.003	
16.380	-0.084	0.006	
16.385	-0.016	0.000	
16.390	0.104	-0.003	
16.395	-0.045	0.003	
16.400	-0.058	0.003	
16.405	0.091	-0.001	
16.410	-0.003	0.003	
16.415	-0.090	0.004	
16.420	0.027	-0.003	
16.425	0.058	-0.005	
16.430	-0.074	-0.002	
16.435	-0.031	-0.006	
16.440	0.075	-0.009	
16.445	-0.055	-0.006	
16.450	-0.075	-0.009	
16.455	0.067	-0.015	
16.460	-0.022	-0.013	
16.465	-0.109	-0.014	
16.470	0.020	-0.022	
16.475	0.041	-0.023	
16.480	-0.089	-0.019	
16.485	-0.025	-0.021	
16.490	0.085	-0.020	
16.495	-0.051	-0.012	
16.500	-0.058	-0.009	
16.505	0.078	-0.010	
16.510	-0.011	-0.005	
16.515	-0.098	-0.003	
16.520	0.024	-0.010	
16.525	0.046	-0.012	
16.530	-0.081	-0.009	
16.535	-0.028	-0.013	
16.540	0.055	-0.016	
16.545	-0.072	-0.014	
16.550	-0.072	-0.018	
16.555	0.073	-0.023	
16.560	-0.014	-0.019	
16.565	-0.084	-0.015	
16.570	0.036	-0.017	
16.575	0.032	-0.014	
16.580	-0.092	-0.010	
16.585	-0.016	-0.013	
16.590	0.105	-0.014	
16.595	-0.040	-0.004	
16.600	-0.061	-0.000	
16.605	0.084	-0.002	
16.610	-0.008	0.002	
16.615	-0.092	0.003	
16.620	0.041	-0.005	
16.625	0.064	-0.005	
16.630	-0.072	0.000	
16.635	0.003	-0.001	
16.640	0.119	0.001	
16.645	-0.028	0.012	
16.650	-0.034	0.016	
16.655	0.117	0.016	
16.660	0.018	0.024	
16.665	-0.074	0.026	
16.670	0.052	0.019	
16.675	0.070	0.017	
16.680	-0.083	0.018	
16.685	-0.011	0.010	
16.690	0.078	0.003	
16.695	-0.066	0.003	
16.700	-0.083	-0.004	
16.705	0.055	-0.015	
16.710	-0.029	-0.018	
16.715	-0.112	-0.021	
16.720	0.001	-0.030	
16.725	0.023	-0.033	
16.730	-0.101	-0.031	
16.735	-0.049	-0.035	
16.740	0.052	-0.037	
16.745	-0.075	-0.032	
16.750	-0.089	-0.033	
16.755	0.068	-0.035	
16.760	-0.013	-0.028	
16.765	-0.109	-0.023	
16.770	0.006	-0.026	
16.775	0.018	-0.027	
16.780	-0.092	-0.024	
16.785	0.023	-0.025	
16.790	0.255	-0.011	
16.795	0.160	0.029	
16.800	0.195	0.080	
16.805	0.345	0.131	
16.810	0.125	0.179	
16.815	-0.066	0.194	
16.820	0.004	0.165	
16.825	-0.016	0.117	
16.830	-0.127	0.065	
16.835	-0.058	0.012	
16.840	0.062	-0.024	
16.845	-0.077	-0.038	
16.850	-0.089	-0.046	
16.855	0.035	-0.052	
16.860	-0.042	-0.048	
16.865	-0.113	-0.045	
16.870	-0.017	-0.048	
16.875	0.003	-0.047	
16.880	-0.113	-0.044	
16.885	-0.045	-0.047	
16.890	0.058	-0.046	
16.895	-0.068	-0.037	
16.900	-0.064	-0.032	
16.905	0.070	-0.030	
16.910	-0.023	-0.021	
16.915	-0.101	-0.016	
16.920	0.044	-0.019	
16.925	0.078	-0.014	
16.930	-0.075	-0.003	
16.935	-0.016	-0.001	
16.940	0.093	-0.001	
16.945	-0.046	0.005	
16.950	-0.060	0.005	
16.955	0.099	0.000	
16.960	0.013	0.005	
16.965	-0.075	0.009	
16.970	0.062	0.006	
16.975	0.084	0.009	
16.980	-0.060	0.017	
16.985	0.010	0.017	
16.990	0.117	0.017	
16.995	-0.035	0.024	
17.000	-0.046	0.023	
17.005	0.114	0.017	
17.010	0.026	0.021	
17.015	-0.058	0.024	
17.020	0.068	0.020	
17.025	0.073	0.021	
17.030	-0.074	0.025	
17.035	-0.005	0.018	
17.040	0.125	0.013	
17.045	-0.034	0.018	
17.050	-0.051	0.018	
17.055	0.114	0.013	
17.060	0.018	0.018	
17.065	-0.063	0.021	
17.070	0.049	0.015	
17.075	0.049	0.014	
17.080	-0.084	0.013	
17.085	-0.020	0.004	
17.090	0.079	-0.003	
17.095	-0.068	-0.003	
17.100	-0.074	-0.008	
17.105	0.064	-0.016	
17.110	-0.017	-0.016	
17.115	-0.095	-0.015	
17.120	0.027	-0.021	
17.125	0.046	-0.019	
17.130	-0.090	-0.014	
17.135	-0.026	-0.016	
17.140	0.091	-0.016	
17.145	-0.051	-0.009	
17.150	-0.064	-0.007	
17.155	0.079	-0.009	
17.160	0.003	-0.004	
17.165	-0.092	-0.001	
17.170	0.041	-0.006	
17.175	0.061	-0.005	
17.180	-0.083	0.000	
17.185	-0.023	-0.003	
17.190	0.088	-0.006	
17.195	-0.046	-0.002	
17.200	-0.061	-0.002	
17.205	0.085	-0.006	
17.210	-0.006	-0.002	
17.215	-0.090	-0.000	
17.220	0.038	-0.006	
17.225	0.058	-0.006	
17.230	-0.078	-0.002	
17.235	-0.029	-0.005	
17.240	0.094	-0.008	
17.245	-0.049	-0.002	
17.250	-0.063	-0.002	
17.255	0.084	-0.006	
17.260	-0.013	-0.003	
17.265	-0.090	-0.002	
17.270	0.039	-0.008	
17.275	0.046	-0.008	
17.280	-0.086	-0.005	
17.285	-0.016	-0.009	
17.290	0.088	-0.010	
17.295	-0.054	-0.004	
17.300	-0.068	-0.004	
17.305	0.085	-0.009	
17.310	0.018	-0.003	
17.315	-0.078	0.002	
17.320	0.058	0.000	
17.325	0.073	0.005	
17.330	-0.068	0.012	
17.335	0.003	0.011	
17.340	0.119	0.011	
17.345	-0.040	0.018	
17.350	-0.055	0.018	
17.355	0.097	0.012	
17.360	-0.008	0.013	
17.365	-0.090	0.010	
17.370	0.041	0.001	
17.375	0.049	-0.003	
17.380	-0.097	-0.002	
17.385	-0.040	-0.009	
17.390	0.072	-0.016	
17.395	-0.075	-0.015	
17.400	-0.095	-0.020	
17.405	0.033	-0.029	
17.410	-0.042	-0.032	
17.415	-0.113	-0.035	
17.420	0.003	-0.042	
17.425	0.021	-0.042	
17.430	-0.100	-0.036	
17.435	-0.040	-0.037	
17.440	0.070	-0.036	
17.445	-0.057	-0.026	
17.450	-0.075	-0.022	
17.455	0.065	-0.023	
17.460	-0.032	-0.018	
17.465	-0.098	-0.017	
17.470	0.102	-0.019	
17.475	0.252	0.000	
17.480	0.148	0.044	
17.485	0.288	0.096	
17.490	0.345	0.153	
17.495	0.064	0.201	
17.500	-0.037	0.208	
17.505	0.062	0.175	
17.510	-0.045	0.129	
17.515	-0.126	0.075	
17.520	-0.011	0.021	
17.525	0.003	-0.017	
17.530	-0.121	-0.038	
17.535	-0.066	-0.055	
17.540	0.035	-0.064	
17.545	-0.077	-0.059	
17.550	-0.095	-0.056	
17.555	0.029	-0.055	
17.560	-0.043	-0.048	
17.565	-0.118	-0.044	
17.570	0.000	-0.047	
17.575	0.024	-0.044	
17.580	-0.101	-0.037	
17.585	-0.032	-0.036	
17.590	0.085	-0.033	
17.595	-0.055	-0.021	
17.600	-0.078	-0.017	
17.605	0.076	-0.017	
17.610	-0.006	-0.011	
17.615	-0.081	-0.007	
17.620	0.042	-0.010	
17.625	0.042	-0.007	
17.630	-0.086	-0.002	
17.635	-0.016	-0.006	
17.640	0.101	-0.008	
17.645	-0.043	-0.001	
17.650	-0.055	0.001	
17.655	0.099	-0.001	
17.660	0.017	0.006	
17.665	-0.064	0.011	
17.670	0.059	0.009	
17.675	0.085	0.013	
17.680	-0.063	0.020	
17.685	0.001	0.018	
17.690	0.136	0.017	
17.695	-0.032	0.025	
17.700	-0.052	0.025	
17.705	0.107	0.019	
17.710	0.030	0.021	
17.715	-0.072	0.023	
17.720	0.068	0.017	
17.725	0.084	0.018	
17.730	-0.060	0.024	
17.735	0.003	0.020	
17.740	0.108	0.017	
17.745	-0.040	0.021	
17.750	-0.054	0.018	
17.755	0.093	0.010	
17.760	-0.002	0.011	
17.765	-0.086	0.009	
17.770	0.021	-0.000	
17.775	0.036	-0.005	
17.780	-0.090	-0.007	
17.785	-0.038	-0.014	
17.790	0.068	-0.020	
17.795	-0.058	-0.017	
17.800	-0.077	-0.019	
17.805	0.062	-0.023	
17.810	-0.017	-0.019	
17.815	-0.101	-0.017	
17.820	0.020	-0.022	
17.825	0.047	-0.021	
17.830	-0.087	-0.016	
17.835	-0.019	-0.017	
17.840	0.110	-0.015	
17.845	-0.046	-0.004	
17.850	-0.072	-0.001	
17.855	0.084	-0.004	
17.860	0.009	0.000	
17.865	-0.083	0.003	
17.870	0.035	-0.002	
17.875	0.038	-0.003	
17.880	-0.092	-0.002	
17.885	-0.031	-0.009	
17.890	0.084	-0.014	
17.895	-0.043	-0.010	
17.900	-0.054	-0.008	
17.905	0.108	-0.008	
17.910	0.027	0.002	
17.915	-0.077	0.011	
17.920	0.035	0.009	
17.925	0.072	0.009	
17.930	-0.072	0.013	
17.935	-0.008	0.008	
17.940	0.122	0.006	
17.945	-0.032	0.013	
17.950	-0.045	0.015	
17.955	0.101	0.012	
17.960	0.012	0.016	
17.965	-0.077	0.017	
17.970	0.039	0.010	
17.975	0.076	0.008	
17.980	-0.075	0.011	
17.985	-0.011	0.007	
17.990	0.108	0.004	
17.995	-0.045	0.009	
18.000	-0.060	0.008	
18.005	0.096	0.003	
18.010	0.012	0.007	
18.015	-0.068	0.010	
18.020	0.064	0.006	
18.025	0.093	0.011	
18.030	-0.064	0.020	
18.035	-0.005	0.018	
18.040	0.125	0.017	
18.045	-0.020	0.023	
18.050	-0.038	0.024	
18.055	0.110	0.021	
18.060	0.007	0.024	
18.065	-0.077	0.023	
18.070	0.046	0.014	
18.075	0.046	0.010	
18.080	-0.095	0.008	
18.085	-0.042	-0.003	
18.090	0.079	-0.013	
18.095	-0.066	-0.013	
18.100	-0.087	-0.017	
18.105	0.056	-0.024	
18.110	-0.020	-0.023	
18.115	-0.104	-0.022	
18.120	0.015	-0.028	
18.125	0.046	-0.027	
18.130	-0.084	-0.020	
18.135	-0.017	-0.020	
18.140	0.097	-0.017	
18.145	-0.063	-0.007	
18.150	-0.084	-0.006	
18.155	0.044	-0.013	
18.160	-0.028	-0.015	
18.165	-0.100	-0.019	
18.170	0.059	-0.025	
18.175	0.177	-0.014	
18.180	0.101	0.018	
18.185	0.285	0.060	
18.190	0.408	0.120	
18.195	0.137	0.184	
18.200	0.013	0.214	
18.205	0.108	0.202	
18.210	-0.032	0.168	
18.215	-0.132	0.116	
18.220	-0.013	0.055	
18.225	0.007	0.008	
18.230	-0.118	-0.022	
18.235	-0.068	-0.046	
18.240	0.035	-0.060	
18.245	-0.089	-0.059	
18.250	-0.101	-0.059	
18.255	0.032	-0.061	
18.260	-0.038	-0.053	
18.265	-0.116	-0.047	
18.270	-0.011	-0.049	
18.275	0.017	-0.046	
18.280	-0.097	-0.040	
18.285	-0.049	-0.040	
18.290	0.061	-0.038	
18.295	-0.058	-0.030	
18.300	-0.061	-0.026	
18.305	0.082	-0.024	
18.310	-0.023	-0.014	
18.315	-0.101	-0.010	
18.320	0.018	-0.016	
18.325	0.047	-0.017	
18.330	-0.080	-0.012	
18.335	-0.017	-0.014	
18.340	0.102	-0.013	
18.345	-0.037	-0.003	
18.350	-0.052	0.001	
18.355	0.104	0.002	
18.360	0.023	0.009	
18.365	-0.063	0.016	
18.370	0.062	0.014	
18.375	0.094	0.018	
18.380	-0.045	0.026	
18.385	0.003	0.025	
18.390	0.120	0.024	
18.395	-0.031	0.029	
18.400	-0.052	0.026	
18.405	0.107	0.019	
18.410	0.018	0.020	
18.415	-0.077	0.020	
18.420	0.061	0.013	
18.425	0.091	0.013	
18.430	-0.063	0.019	
18.435	-0.006	0.017	
18.440	0.107	0.014	
18.445	-0.035	0.018	
18.450	-0.054	0.016	
18.455	0.107	0.010	
18.460	0.013	0.013	
18.465	-0.086	0.015	
18.470	0.026	0.007	
18.475	0.035	0.001	
18.480	-0.090	-0.001	
18.485	-0.035	-0.011	
18.490	0.084	-0.017	
18.495	-0.052	-0.013	
18.500	-0.077	-0.013	
18.505	0.068	-0.017	
18.510	-0.014	-0.014	
18.515	-0.106	-0.013	
18.520	0.010	-0.020	
18.525	0.042	-0.021	
18.530	-0.084	-0.018	
18.535	-0.034	-0.020	
18.540	0.087	-0.021	
18.545	-0.048	-0.013	
18.550	-0.071	-0.010	
18.555	0.073	-0.012	
18.560	-0.009	-0.008	
18.565	-0.092	-0.006	
18.570	0.029	-0.012	
18.575	0.056	-0.011	
18.580	-0.078	-0.006	
18.585	-0.020	-0.008	
18.590	0.102	-0.008	
18.595	-0.040	-0.000	
18.600	-0.066	0.002	
18.605	0.082	-0.002	
18.610	0.007	0.002	
18.615	-0.090	0.003	
18.620	0.021	-0.003	
18.625	0.050	-0.006	
18.630	-0.084	-0.005	
18.635	-0.028	-0.010	
18.640	0.085	-0.013	
18.645	-0.045	-0.008	
18.650	-0.064	-0.007	
18.655	0.084	-0.009	
18.660	0.006	-0.004	
18.665	-0.086	0.000	
18.670	0.027	-0.004	
18.675	0.062	-0.004	
18.680	-0.068	0.000	
18.685	-0.003	-0.001	
18.690	0.119	0.001	
18.695	-0.031	0.011	
18.700	-0.055	0.014	
18.705	0.105	0.011	
18.710	0.026	0.016	
18.715	-0.069	0.020	
18.720	0.061	0.015	
18.725	0.097	0.017	
18.730	-0.045	0.025	
18.735	0.010	0.025	
18.740	0.120	0.025	
18.745	-0.029	0.030	
18.750	-0.054	0.028	
18.755	0.079	0.019	
18.760	0.000	0.016	
18.765	-0.084	0.011	
18.770	0.018	-0.000	
18.775	0.023	-0.007	
18.780	-0.098	-0.011	
18.785	-0.046	-0.021	
18.790	0.056	-0.028	
18.795	-0.061	-0.026	
18.800	-0.081	-0.027	
18.805	0.050	-0.031	
18.810	-0.013	-0.027	
18.815	-0.100	-0.023	
18.820	0.003	-0.027	
18.825	0.041	-0.026	
18.830	-0.078	-0.021	
18.835	-0.042	-0.021	
18.840	0.049	-0.023	
18.845	-0.077	-0.021	
18.850	-0.090	-0.025	
18.855	0.099	-0.029	
18.860	0.102	-0.017	
18.865	0.082	0.011	
18.870	0.319	0.049	
18.875	0.316	0.107	
18.880	0.027	0.160	
18.885	0.013	0.175	
18.890	0.053	0.155	
18.895	-0.103	0.117	
18.900	-0.127	0.064	
18.905	-0.003	0.010	
18.910	-0.052	-0.028	
18.915	-0.119	-0.051	
18.920	-0.020	-0.068	
18.925	0.010	-0.070	
18.930	-0.113	-0.064	
18.935	-0.061	-0.062	
18.940	0.027	-0.059	
18.945	-0.084	-0.051	
18.950	-0.098	-0.048	
18.955	0.035	-0.050	
18.960	-0.038	-0.044	
18.965	-0.122	-0.041	
18.970	-0.009	-0.045	
18.975	0.024	-0.045	
18.980	-0.090	-0.038	
18.985	-0.031	-0.037	
18.990	0.084	-0.032	
18.995	-0.054	-0.020	
19.000	-0.078	-0.016	
19.005	0.067	-0.017	
19.010	-0.006	-0.012	
19.015	-0.090	-0.009	
19.020	0.027	-0.013	
19.025	0.049	-0.012	
19.030	-0.074	-0.007	
19.035	-0.016	-0.009	
19.040	0.107	-0.008	
19.045	-0.032	0.002	
19.050	-0.058	0.005	
19.055	0.104	0.004	
19.060	0.020	0.010	
19.065	-0.075	0.015	
19.070	0.036	0.010	
19.075	0.065	0.008	
19.080	-0.064	0.011	
19.085	-0.011	0.007	
19.090	0.110	0.005	
19.095	-0.029	0.011	
19.100	-0.055	0.012	
19.105	0.099	0.008	
19.110	0.018	0.012	
19.115	-0.078	0.015	
19.120	0.039	0.009	
19.125	0.076	0.008	
19.130	-0.064	0.012	
19.135	-0.028	0.008	
19.140	0.075	0.002	
19.145	-0.052	0.002	
19.150	-0.080	-0.003	
19.155	0.070	-0.012	
19.160	-0.014	-0.012	
19.165	-0.106	-0.012	
19.170	0.010	-0.020	
19.175	0.055	-0.022	
19.180	-0.086	-0.017	
19.185	-0.038	-0.019	
19.190	0.088	-0.020	
19.195	-0.032	-0.011	
19.200	-0.064	-0.007	
19.205	0.068	-0.008	
19.210	-0.009	-0.004	
19.215	-0.100	-0.004	
19.220	0.021	-0.011	
19.225	0.067	-0.013	
19.230	-0.077	-0.007	
19.235	-0.022	-0.008	
19.240	0.101	-0.008	
19.245	-0.035	0.000	
19.250	-0.058	0.003	
19.255	0.099	0.001	
19.260	0.015	0.007	
19.265	-0.080	0.011	
19.270	0.033	0.006	
19.275	0.062	0.005	
19.280	-0.069	0.007	
19.285	-0.008	0.003	
19.290	0.101	0.001	
19.295	-0.037	0.007	
19.300	-0.057	0.008	
19.305	0.090	0.004	
19.310	-0.002	0.006	
19.315	-0.089	0.007	
19.320	0.017	-0.002	
19.325	0.058	-0.006	
19.330	-0.068	-0.004	
19.335	-0.013	-0.006	
19.340	0.091	-0.006	
19.345	-0.049	0.000	
19.350	-0.068	0.000	
19.355	0.073	-0.005	
19.360	-0.002	-0.003	
19.365	-0.084	-0.002	
19.370	0.038	-0.008	
19.375	0.072	-0.006	
19.380	-0.072	0.001	
19.385	-0.025	-0.000	
19.390	0.094	-0.002	
19.395	-0.031	0.004	
19.400	-0.042	0.005	
19.405	0.122	0.006	
19.410	0.047	0.016	
19.415	-0.052	0.026	
19.420	0.053	0.026	
19.425	0.079	0.027	
19.430	-0.058	0.030	
19.435	-0.006	0.024	
19.440	0.108	0.018	
19.445	-0.032	0.020	
19.450	-0.061	0.017	
19.455	0.075	0.008	
19.460	-0.006	0.006	
19.465	-0.100	0.002	
19.470	0.000	-0.009	
19.475	0.038	-0.016	
19.480	-0.087	-0.017	
19.485	-0.042	-0.023	
19.490	0.052	-0.027	
19.495	-0.072	-0.024	
19.500	-0.092	-0.027	
19.505	0.049	-0.033	
19.510	-0.008	-0.030	
19.515	-0.097	-0.026	
19.520	0.015	-0.028	
19.525	0.053	-0.024	
19.530	-0.083	-0.016	
19.535	-0.038	-0.016	
19.540	0.062	-0.018	
19.545	-0.060	-0.014	
19.550	-0.063	-0.015	
19.555	0.181	-0.013	
19.560	0.217	0.014	
19.565	0.168	0.061	
19.570	0.342	0.114	
19.575	0.304	0.172	
19.580	0.015	0.214	
19.585	-0.006	0.210	
19.590	0.047	0.171	
19.595	-0.081	0.121	
19.600	-0.101	0.064	
19.605	0.032	0.013	
19.610	-0.025	-0.018	
19.615	-0.110	-0.036	
19.620	0.001	-0.049	
19.625	0.030	-0.050	
19.630	-0.110	-0.044	
19.635	-0.066	-0.044	
19.640	0.036	-0.046	
19.645	-0.075	-0.041	
19.650	-0.097	-0.041	
19.655	0.044	-0.044	
19.660	-0.020	-0.038	
19.665	-0.109	-0.033	
19.670	0.006	-0.036	
19.675	0.046	-0.032	
19.680	-0.084	-0.024	
19.685	-0.037	-0.023	
19.690	0.081	-0.022	
19.695	-0.052	-0.014	
19.700	-0.068	-0.012	
19.705	0.091	-0.013	
19.710	0.001	-0.006	
19.715	-0.089	-0.001	
19.720	0.021	-0.005	
19.725	0.058	-0.006	
19.730	-0.075	-0.003	
19.735	-0.023	-0.006	
19.740	0.110	-0.007	
19.745	-0.032	0.002	
19.750	-0.055	0.005	
19.755	0.093	0.003	
19.760	0.017	0.009	
19.765	-0.078	0.012	
19.770	0.033	0.006	
19.775	0.079	0.006	
19.780	-0.052	0.011	
19.785	-0.026	0.009	
19.790	0.091	0.006	
19.795	-0.035	0.009	
19.800	-0.058	0.007	
19.805	0.093	0.002	
19.810	0.026	0.006	
19.815	-0.072	0.011	
19.820	0.035	0.007	
19.825	0.065	0.007	
19.830	-0.078	0.009	
19.835	-0.032	0.003	
19.840	0.085	-0.003	
19.845	-0.040	-0.001	
19.850	-0.060	-0.002	
19.855	0.059	-0.007	
19.860	-0.014	-0.006	
19.865	-0.101	-0.008	
19.870	-0.003	-0.017	
19.875	0.033	-0.022	
19.880	-0.092	-0.022	
19.885	-0.045	-0.027	
19.890	0.064	-0.029	
19.895	-0.054	-0.024	
19.900	-0.086	-0.023	
19.905	0.049	-0.026	
19.910	0.009	-0.022	
19.915	-0.086	-0.017	
19.920	0.017	-0.018	
19.925	0.036	-0.016	
19.930	-0.097	-0.012	
19.935	-0.040	-0.017	
19.940	0.087	-0.021	
19.945	-0.034	-0.014	
19.950	-0.069	-0.010	
19.955	0.062	-0.012	
19.960	0.013	-0.007	
19.965	-0.081	-0.003	
19.970	0.027	-0.006	
19.975	0.064	-0.005	
19.980	-0.069	0.001	
19.985	-0.013	-0.001	
19.990	0.097	-0.001	
19.995	-0.037	0.006	
20.000	-0.068	0.006	
20.005	0.061	-0.000	
20.010	0.001	-0.001	
20.015	-0.092	-0.002	
20.020	0.027	-0.009	
20.025	0.068	-0.010	
20.030	-0.074	-0.004	
20.035	-0.031	-0.006	
20.040	0.085	-0.008	
20.045	-0.040	-0.003	
20.050	-0.060	-0.002	
20.055	0.076	-0.005	
20.060	0.001	-0.002	
20.065	-0.092	-0.000	
20.070	0.023	-0.007	
20.075	0.062	-0.008	
20.080	-0.080	-0.004	
20.085	-0.032	-0.007	
20.090	0.081	-0.011	
20.095	-0.042	-0.006	
20.100	-0.066	-0.006	
20.105	0.079	-0.009	
20.110	0.009	-0.004	
20.115	-0.083	-0.001	
20.120	0.044	-0.004	
20.125	0.091	-0.000	
20.130	-0.058	0.009	
20.135	-0.005	0.011	
20.140	0.131	0.013	
20.145	-0.019	0.022	
20.150	-0.042	0.025	
20.155	0.111	0.022	
20.160	0.046	0.027	
20.165	-0.061	0.031	
20.170	0.052	0.026	
20.175	0.076	0.024	
20.180	-0.068	0.025	
20.185	-0.023	0.017	
20.190	0.094	0.009	
20.195	-0.037	0.009	
20.200	-0.069	0.006	
20.205	0.046	-0.003	
20.210	-0.017	-0.007	
20.215	-0.109	-0.012	
20.220	-0.017	-0.024	
20.225	0.026	-0.031	
20.230	-0.087	-0.031	
20.235	-0.048	-0.034	
20.240	0.081	-0.034	
20.245	-0.042	-0.025	
20.250	-0.080	-0.019	
20.255	0.056	-0.020	
20.260	-0.002	-0.015	
20.265	-0.089	-0.011	
20.270	0.010	-0.015	
20.275	0.049	-0.015	
20.280	-0.074	-0.011	
20.285	0.018	-0.011	
20.290	0.276	0.003	
20.295	0.229	0.046	
20.300	0.214	0.102	
20.305	0.359	0.158	
20.310	0.180	0.207	
20.315	-0.051	0.224	
20.320	0.001	0.195	
20.325	0.013	0.143	
20.330	-0.104	0.087	
20.335	-0.061	0.032	
20.340	0.044	-0.009	
20.345	-0.083	-0.031	
20.350	-0.118	-0.046	
20.355	0.012	-0.060	
20.360	-0.042	-0.062	
20.365	-0.129	-0.060	
20.370	-0.029	-0.064	
20.375	0.006	-0.062	
20.380	-0.109	-0.056	
20.385	-0.071	-0.055	
20.390	0.039	-0.054	
20.395	-0.061	-0.047	
20.400	-0.092	-0.042	
20.405	0.035	-0.042	
20.410	-0.011	-0.036	
20.415	-0.087	-0.029	
20.420	0.013	-0.029	
20.425	0.038	-0.024	
20.430	-0.087	-0.017	
20.435	-0.043	-0.019	
20.440	0.081	-0.021	
20.445	-0.042	-0.014	
20.450	-0.077	-0.012	
20.455	0.062	-0.015	
20.460	0.010	-0.011	
20.465	-0.086	-0.007	
20.470	0.026	-0.010	
20.475	0.076	-0.008	
20.480	-0.063	0.000	
20.485	-0.026	0.000	
20.490	0.116	0.001	
20.495	-0.028	0.009	
20.500	-0.063	0.011	
20.505	0.090	0.007	
20.510	0.027	0.011	
20.515	-0.068	0.014	
20.520	0.042	0.010	
20.525	0.093	0.011	
20.530	-0.052	0.018	
20.535	-0.013	0.017	
20.540	0.111	0.015	
20.545	-0.020	0.020	
20.550	-0.061	0.019	
20.555	0.081	0.012	
20.560	0.026	0.012	
20.565	-0.084	0.012	
20.570	0.009	0.004	
20.575	0.049	-0.002	
20.580	-0.087	-0.003	
20.585	-0.048	-0.012	
20.590	0.065	-0.019	
20.595	-0.058	-0.018	
20.600	-0.078	-0.020	
20.605	0.050	-0.025	
20.610	-0.014	-0.022	
20.615	-0.107	-0.021	
20.620	-0.002	-0.027	
20.625	0.044	-0.028	
20.630	-0.077	-0.023	
20.635	-0.035	-0.023	
20.640	0.081	-0.022	
20.645	-0.043	-0.013	
20.650	-0.074	-0.010	
20.655	0.067	-0.013	
20.660	0.021	-0.008	
20.665	-0.087	-0.003	
20.670	0.023	-0.006	
20.675	0.072	-0.005	
20.680	-0.066	0.001	
20.685	-0.026	-0.000	
20.690	0.090	-0.002	
20.695	-0.038	0.003	
20.700	-0.064	0.002	
20.705	0.084	-0.002	
20.710	0.035	0.002	
20.715	-0.081	0.007	
20.720	0.027	0.004	
20.725	0.070	0.004	
20.730	-0.066	0.007	
20.735	-0.023	0.004	
20.740	0.104	0.001	
20.745	-0.031	0.007	
20.750	-0.060	0.007	
20.755	0.082	0.003	
20.760	0.017	0.006	
20.765	-0.075	0.008	
20.770	0.010	0.002	
20.775	0.056	-0.001	
20.780	-0.074	-0.000	
20.785	-0.032	-0.006	
20.790	0.104	-0.009	
20.795	-0.040	-0.002	
20.800	-0.071	-0.001	
20.805	0.072	-0.005	
20.810	0.017	-0.002	
20.815	-0.078	0.001	
20.820	0.023	-0.003	
20.825	0.079	-0.002	
20.830	-0.071	0.003	
20.835	-0.020	0.002	
20.840	0.111	0.001	
20.845	-0.025	0.008	
20.850	-0.068	0.010	
20.855	0.078	0.005	
20.860	0.030	0.008	
20.865	-0.060	0.011	
20.870	0.050	0.009	
20.875	0.097	0.012	
20.880	-0.048	0.021	
20.885	-0.002	0.021	
20.890	0.140	0.022	
20.895	-0.003	0.031	
20.900	-0.054	0.033	
20.905	0.087	0.027	
20.910	0.027	0.026	
20.915	-0.090	0.023	
20.920	0.001	0.010	
20.925	0.050	0.000	
20.930	-0.087	-0.004	
20.935	-0.061	-0.014	
20.940	0.049	-0.024	
20.945	-0.064	-0.025	
20.950	-0.109	-0.030	
20.955	0.015	-0.039	
20.960	-0.019	-0.041	
20.965	-0.115	-0.041	
20.970	-0.017	-0.045	
20.975	0.032	-0.045	
20.980	-0.090	-0.038	
20.985	-0.046	-0.037	
20.990	0.085	-0.034	
20.995	-0.058	-0.023	
21.000	-0.104	-0.020	
21.005	0.020	-0.026	
21.010	-0.020	-0.028	
21.015	-0.081	-0.029	
21.020	0.128	-0.026	
21.025	0.308	0.002	
21.030	0.214	0.060	
21.035	0.249	0.123	
21.040	0.298	0.177	
21.045	0.033	0.212	
21.050	-0.077	0.203	
21.055	0.007	0.156	
21.060	-0.040	0.100	
21.065	-0.129	0.044	
21.070	-0.034	-0.007	
21.075	0.006	-0.039	
21.080	-0.115	-0.054	
21.085	-0.077	-0.066	
21.090	0.036	-0.070	
21.095	-0.061	-0.062	
21.100	-0.101	-0.055	
21.105	0.021	-0.053	
21.110	-0.025	-0.046	
21.115	-0.119	-0.041	
21.120	-0.011	-0.043	
21.125	0.032	-0.042	
21.130	-0.089	-0.035	
21.135	-0.043	-0.034	
21.140	0.082	-0.031	
21.145	-0.043	-0.021	
21.150	-0.080	-0.016	
21.155	0.061	-0.017	
21.160	0.007	-0.012	
21.165	-0.090	-0.008	
21.170	0.007	-0.012	
21.175	0.068	-0.012	
21.180	-0.061	-0.006	
21.185	-0.022	-0.006	
21.190	0.108	-0.004	
21.195	-0.023	0.005	
21.200	-0.051	0.009	
21.205	0.093	0.008	
21.210	0.032	0.014	
21.215	-0.068	0.018	
21.220	0.055	0.015	
21.225	0.107	0.017	
21.230	-0.052	0.025	
21.235	-0.023	0.023	
21.240	0.114	0.019	
21.245	-0.020	0.022	
21.250	-0.055	0.020	
21.255	0.101	0.014	
21.260	0.049	0.018	
21.265	-0.069	0.022	
21.270	0.044	0.018	
21.275	0.104	0.018	
21.280	-0.048	0.025	
21.285	-0.009	0.023	
21.290	0.127	0.021	
21.295	-0.028	0.026	
21.300	-0.064	0.024	
21.305	0.072	0.015	
21.310	0.027	0.012	
21.315	-0.083	0.011	
21.320	0.006	0.002	
21.325	0.050	-0.004	
21.330	-0.084	-0.005	
21.335	-0.054	-0.012	
21.340	0.061	-0.020	
21.345	-0.045	-0.019	
21.350	-0.081	-0.020	
21.355	0.058	-0.024	
21.360	0.006	-0.019	
21.365	-0.110	-0.015	
21.370	-0.014	-0.021	
21.375	0.038	-0.025	
21.380	-0.084	-0.023	
21.385	-0.043	-0.026	
21.390	0.088	-0.026	
21.395	-0.042	-0.017	
21.400	-0.086	-0.014	
21.405	0.061	-0.016	
21.410	0.012	-0.012	
21.415	-0.092	-0.008	
21.420	0.006	-0.013	
21.425	0.067	-0.013	
21.430	-0.068	-0.007	
21.435	-0.042	-0.008	
21.440	0.065	-0.011	
21.445	-0.052	-0.009	
21.450	-0.081	-0.012	
21.455	0.065	-0.018	
21.460	0.030	-0.014	
21.465	-0.080	-0.007	
21.470	0.020	-0.008	
21.475	0.067	-0.005	
21.480	-0.071	0.001	
21.485	-0.040	-0.002	
21.490	0.081	-0.006	
21.495	-0.042	-0.003	
21.500	-0.081	-0.005	
21.505	0.068	-0.011	
21.510	0.013	-0.009	
21.515	-0.092	-0.006	
21.520	0.000	-0.011	
21.525	0.059	-0.013	
21.530	-0.072	-0.010	
21.535	-0.048	-0.012	
21.540	0.087	-0.015	
21.545	-0.031	-0.009	
21.550	-0.058	-0.006	
21.555	0.101	-0.006	
21.560	0.068	0.005	
21.565	-0.061	0.018	
21.570	0.035	0.020	
21.575	0.108	0.023	
21.580	-0.028	0.030	
21.585	-0.008	0.030	
21.590	0.111	0.028	
21.595	-0.028	0.030	
21.600	-0.069	0.025	
21.605	0.073	0.014	
21.610	0.018	0.010	
21.615	-0.087	0.007	
21.620	-0.002	-0.003	
21.625	0.049	-0.009	
21.630	-0.083	-0.010	
21.635	-0.061	-0.017	
21.640	0.065	-0.023	
21.645	-0.049	-0.022	
21.650	-0.083	-0.022	
21.655	0.030	-0.027	
21.660	-0.008	-0.025	
21.665	-0.104	-0.024	
21.670	-0.013	-0.030	
21.675	0.056	-0.030	
21.680	-0.071	-0.024	
21.685	-0.046	-0.022	
21.690	0.067	-0.022	
21.695	-0.051	-0.016	
21.700	-0.089	-0.016	
21.705	0.061	-0.020	
21.710	0.076	-0.014	
21.715	0.029	0.003	
21.720	0.273	0.029	
21.725	0.385	0.081	
21.730	0.140	0.146	
21.735	0.093	0.186	
21.740	0.128	0.193	
21.745	-0.061	0.173	
21.750	-0.130	0.126	
21.755	-0.019	0.064	
21.760	-0.042	0.012	
21.765	-0.130	-0.027	
21.770	-0.040	-0.056	
21.775	0.021	-0.069	
21.780	-0.103	-0.068	
21.785	-0.075	-0.066	
21.790	0.044	-0.063	
21.795	-0.052	-0.052	
21.800	-0.100	-0.044	
21.805	0.023	-0.042	
21.810	-0.006	-0.037	
21.815	-0.101	-0.031	
21.820	-0.016	-0.033	
21.825	0.044	-0.032	
21.830	-0.077	-0.026	
21.835	-0.051	-0.025	
21.840	0.081	-0.025	
21.845	-0.038	-0.017	
21.850	-0.074	-0.013	
21.855	0.052	-0.015	
21.860	0.015	-0.011	
21.865	-0.083	-0.007	
21.870	0.021	-0.010	
21.875	0.090	-0.007	
21.880	-0.051	0.002	
21.885	-0.014	0.006	
21.890	0.110	0.007	
21.895	-0.023	0.015	
21.900	-0.071	0.016	
21.905	0.067	0.009	
21.910	0.032	0.008	
21.915	-0.072	0.009	
21.920	0.027	0.004	
21.925	0.087	0.004	
21.930	-0.052	0.010	
21.935	-0.026	0.009	
21.940	0.116	0.007	
21.945	-0.017	0.014	
21.950	-0.068	0.015	
21.955	0.079	0.010	
21.960	0.042	0.011	
21.965	-0.072	0.014	
21.970	0.036	0.010	
21.975	0.085	0.010	
21.980	-0.049	0.016	
21.985	-0.031	0.013	
21.990	0.101	0.009	
21.995	-0.028	0.012	
22.000	-0.072	0.010	
22.005	0.073	0.003	
22.010	0.023	0.003	
22.015	-0.089	0.004	
22.020	0.006	-0.003	
22.025	0.070	-0.006	
22.030	-0.072	-0.003	
22.035	-0.042	-0.007	
22.040	0.079	-0.011	
22.045	-0.031	-0.007	
22.050	-0.064	-0.006	
22.055	0.062	-0.008	
22.060	0.020	-0.005	
22.065	-0.084	-0.001	
22.070	0.009	-0.006	
22.075	0.081	-0.006	
22.080	-0.063	-0.000	
22.085	-0.032	-0.001	
22.090	0.097	-0.003	
22.095	-0.031	0.003	
22.100	-0.078	0.004	
22.105	0.059	-0.003	
22.110	0.024	-0.003	
22.115	-0.083	-0.001	
22.120	0.012	-0.006	
22.125	0.079	-0.006	
22.130	-0.064	-0.000	
22.135	-0.043	-0.002	
22.140	0.082	-0.005	
22.145	-0.032	-0.002	
22.150	-0.077	-0.003	
22.155	0.059	-0.008	
22.160	0.012	-0.007	
22.165	-0.097	-0.006	
22.170	-0.013	-0.013	
22.175	0.052	-0.017	
22.180	-0.075	-0.016	
22.185	-0.048	-0.019	
22.190	0.087	-0.021	
22.195	-0.029	-0.013	
22.200	-0.087	-0.010	
22.205	0.042	-0.014	
22.210	0.012	-0.013	
22.215	-0.090	-0.011	
22.220	0.003	-0.016	
22.225	0.087	-0.015	
22.230	-0.052	-0.006	
22.235	-0.029	-0.003	
22.240	0.110	-0.001	
22.245	-0.005	0.009	
22.250	-0.049	0.014	
22.255	0.085	0.014	
22.260	0.035	0.018	
22.265	-0.084	0.020	
22.270	0.007	0.011	
22.275	0.065	0.005	
22.280	-0.072	0.004	
22.285	-0.068	-0.004	
22.290	0.042	-0.015	
22.295	-0.054	-0.019	
22.300	-0.103	-0.025	
22.305	0.013	-0.035	
22.310	-0.017	-0.038	
22.315	-0.109	-0.038	
22.320	-0.017	-0.043	
22.325	0.047	-0.042	
22.330	-0.095	-0.034	
22.335	-0.066	-0.034	
22.340	0.061	-0.035	
22.345	-0.043	-0.029	
22.350	-0.090	-0.026	
22.355	0.033	-0.028	
22.360	-0.003	-0.025	
22.365	-0.113	-0.023	
22.370	-0.019	-0.030	
22.375	0.093	-0.030	
22.380	0.024	-0.016	
22.385	0.142	0.007	
22.390	0.391	0.049	
22.395	0.236	0.115	
22.400	0.070	0.169	
22.405	0.152	0.188	
22.410	0.012	0.181	
22.415	-0.130	0.146	
22.420	-0.057	0.088	
22.425	0.006	0.032	
22.430	-0.101	-0.008	
22.435	-0.075	-0.039	
22.440	0.046	-0.056	
22.445	-0.051	-0.056	
22.450	-0.100	-0.053	
22.455	0.023	-0.052	
22.460	-0.002	-0.045	
22.465	-0.101	-0.036	
22.470	-0.008	-0.036	
22.475	0.033	-0.032	
22.480	-0.093	-0.026	
22.485	-0.069	-0.029	
22.490	0.070	-0.032	
22.495	-0.040	-0.027	
22.500	-0.089	-0.023	
22.505	0.032	-0.026	
22.510	0.015	-0.023	
22.515	-0.089	-0.019	
22.520	0.007	-0.020	
22.525	0.079	-0.017	
22.530	-0.068	-0.008	
22.535	-0.034	-0.006	
22.540	0.097	-0.006	
22.545	-0.026	0.002	
22.550	-0.068	0.004	
22.555	0.078	0.001	
22.560	0.047	0.005	
22.565	-0.072	0.011	
22.570	0.027	0.008	
22.575	0.107	0.010	
22.580	-0.035	0.018	
22.585	-0.016	0.020	
22.590	0.128	0.020	
22.595	0.001	0.027	
22.600	-0.061	0.029	
22.605	0.090	0.023	
22.610	0.056	0.024	
22.615	-0.057	0.027	
22.620	0.038	0.022	
22.625	0.097	0.021	
22.630	-0.051	0.025	
22.635	-0.028	0.021	
22.640	0.116	0.016	
22.645	-0.002	0.019	
22.650	-0.063	0.020	
22.655	0.073	0.014	
22.660	0.038	0.014	
22.665	-0.083	0.015	
22.670	0.001	0.006	
22.675	0.067	0.000	
22.680	-0.080	0.000	
22.685	-0.060	-0.007	
22.690	0.058	-0.016	
22.695	-0.038	-0.017	
22.700	-0.090	-0.019	
22.705	0.044	-0.025	
22.710	0.001	-0.023	
22.715	-0.107	-0.021	
22.720	-0.006	-0.026	
22.725	0.058	-0.027	
22.730	-0.078	-0.021	
22.735	-0.052	-0.021	
22.740	0.078	-0.022	
22.745	-0.029	-0.015	
22.750	-0.078	-0.012	
22.755	0.056	-0.014	
22.760	0.021	-0.010	
22.765	-0.083	-0.005	
22.770	0.007	-0.008	
22.775	0.079	-0.008	
22.780	-0.061	-0.001	
22.785	-0.045	-0.002	
22.790	0.096	-0.004	
22.795	-0.008	0.002	
22.800	-0.054	0.006	
22.805	0.059	0.004	
22.810	0.018	0.006	
22.815	-0.098	0.006	
22.820	0.000	-0.003	
22.825	0.081	-0.008	
22.830	-0.071	-0.005	
22.835	-0.052	-0.008	
22.840	0.088	-0.011	
22.845	-0.019	-0.006	
22.850	-0.069	-0.004	
22.855	0.067	-0.006	
22.860	0.038	-0.001	
22.865	-0.084	0.004	
22.870	0.017	0.001	
22.875	0.075	0.000	
22.880	-0.068	0.004	
22.885	-0.037	0.001	
22.890	0.107	-0.002	
22.895	-0.016	0.004	
22.900	-0.074	0.006	
22.905	0.067	0.002	
22.910	0.058	0.005	
22.915	-0.051	0.011	
22.920	0.050	0.013	
22.925	0.111	0.019	
22.930	-0.028	0.029	
22.935	-0.011	0.031	
22.940	0.148	0.031	
22.945	0.015	0.039	
22.950	-0.054	0.041	
22.955	0.070	0.034	
22.960	0.042	0.030	
22.965	-0.084	0.026	
22.970	-0.011	0.013	
22.975	0.046	0.001	
22.980	-0.084	-0.005	
22.985	-0.074	-0.016	
22.990	0.036	-0.028	
22.995	-0.055	-0.031	
23.000	-0.104	-0.035	
23.005	0.018	-0.042	
23.010	-0.008	-0.041	
23.015	-0.103	-0.038	
23.020	-0.017	-0.040	
23.025	0.032	-0.038	
23.030	-0.095	-0.033	
23.035	-0.071	-0.034	
23.040	0.046	-0.038	
23.045	-0.049	-0.034	
23.050	-0.113	-0.033	
23.055	0.012	-0.039	
23.060	0.018	-0.038	
23.065	-0.035	-0.030	
23.070	0.163	-0.015	
23.075	0.359	0.025	
23.080	0.208	0.090	
23.085	0.168	0.149	
23.090	0.223	0.186	
23.095	-0.003	0.198	
23.100	-0.097	0.173	
23.105	-0.009	0.119	
23.110	-0.029	0.064	
23.115	-0.118	0.016	
23.120	-0.037	-0.024	
23.125	0.024	-0.047	
23.130	-0.100	-0.054	
23.135	-0.084	-0.059	
23.140	0.032	-0.062	
23.145	-0.060	-0.055	
23.150	-0.118	-0.052	
23.155	-0.005	-0.054	
23.160	-0.016	-0.052	
23.165	-0.103	-0.048	
23.170	-0.019	-0.048	
23.175	0.041	-0.044	
23.180	-0.089	-0.035	
23.185	-0.054	-0.033	
23.190	0.090	-0.031	
23.195	-0.023	-0.019	
23.200	-0.086	-0.012	
23.205	0.049	-0.013	
23.210	0.033	-0.009	
23.215	-0.080	-0.004	
23.220	0.010	-0.006	
23.225	0.073	-0.005	
23.230	-0.063	0.001	
23.235	-0.045	-0.001	
23.240	0.108	-0.004	
23.245	-0.003	0.003	
23.250	-0.071	0.008	
23.255	0.067	0.005	
23.260	0.052	0.008	
23.265	-0.068	0.013	
23.270	0.030	0.010	
23.275	0.120	0.012	
23.280	-0.045	0.022	
23.285	-0.035	0.022	
23.290	0.113	0.018	
23.295	-0.003	0.021	
23.300	-0.064	0.021	
23.305	0.079	0.014	
23.310	0.058	0.016	
23.315	-0.052	0.020	
23.320	0.027	0.017	
23.325	0.101	0.018	
23.330	-0.042	0.023	
23.335	-0.031	0.021	
23.340	0.117	0.017	
23.345	0.000	0.021	
23.350	-0.066	0.021	
23.355	0.044	0.014	
23.360	0.013	0.009	
23.365	-0.100	0.004	
23.370	-0.016	-0.009	
23.375	0.068	-0.016	
23.380	-0.064	-0.014	
23.385	-0.052	-0.016	
23.390	0.078	-0.018	
23.395	-0.042	-0.013	
23.400	-0.095	-0.013	
23.405	0.036	-0.019	
23.410	0.020	-0.019	
23.415	-0.084	-0.016	
23.420	-0.008	-0.019	
23.425	0.059	-0.018	
23.430	-0.072	-0.013	
23.435	-0.049	-0.014	
23.440	0.094	-0.016	
23.445	-0.014	-0.008	
23.450	-0.075	-0.003	
23.455	0.049	-0.005	
23.460	0.027	-0.003	
23.465	-0.095	-0.001	
23.470	-0.017	-0.008	
23.475	0.068	-0.013	
23.480	-0.061	-0.010	
23.485	-0.061	-0.012	
23.490	0.078	-0.016	
23.495	-0.025	-0.012	
23.500	-0.081	-0.010	
23.505	0.042	-0.014	
23.510	0.026	-0.012	
23.515	-0.083	-0.008	
23.520	-0.005	-0.012	
23.525	0.081	-0.012	
23.530	-0.055	-0.005	
23.535	-0.038	-0.004	
23.540	0.087	-0.005	
23.545	-0.034	0.000	
23.550	-0.097	-0.001	
23.555	0.033	-0.010	
23.560	0.027	-0.013	
23.565	-0.090	-0.012	
23.570	-0.016	-0.017	
23.575	0.078	-0.019	
23.580	-0.058	-0.012	
23.585	-0.042	-0.010	
23.590	0.111	-0.009	
23.595	0.009	0.002	
23.600	-0.052	0.011	
23.605	0.104	0.013	
23.610	0.059	0.022	
23.615	-0.069	0.029	
23.620	0.033	0.025	
23.625	0.117	0.024	
23.630	-0.043	0.029	
23.635	-0.035	0.026	
23.640	0.114	0.020	
23.645	-0.002	0.022	
23.650	-0.084	0.020	
23.655	0.032	0.009	
23.660	0.013	0.002	
23.665	-0.104	-0.004	
23.670	-0.026	-0.017	
23.675	0.065	-0.024	
23.680	-0.078	-0.022	
23.685	-0.077	-0.025	
23.690	0.052	-0.030	
23.695	-0.051	-0.028	
23.700	-0.109	-0.029	
23.705	0.027	-0.035	
23.710	0.015	-0.034	
23.715	-0.100	-0.029	
23.720	-0.014	-0.030	
23.725	0.073	-0.028	
23.730	-0.077	-0.019	
23.735	-0.068	-0.018	
23.740	0.076	-0.020	
23.745	0.009	-0.013	
23.750	0.015	-0.003	
23.755	0.282	0.018	
23.760	0.377	0.069	
23.765	0.189	0.138	
23.770	0.204	0.191	
23.775	0.192	0.218	
23.780	-0.060	0.215	
23.785	-0.092	0.174	
23.790	0.023	0.111	
23.795	-0.058	0.055	
23.800	-0.112	0.007	
23.805	0.010	-0.030	
23.810	0.003	-0.047	
23.815	-0.115	-0.051	
23.820	-0.057	-0.057	
23.825	0.023	-0.058	
23.830	-0.106	-0.054	
23.835	-0.095	-0.055	
23.840	0.032	-0.057	
23.845	-0.052	-0.052	
23.850	-0.110	-0.048	
23.855	0.012	-0.049	
23.860	0.003	-0.045	
23.865	-0.107	-0.038	
23.870	-0.025	-0.039	
23.875	0.068	-0.036	
23.880	-0.066	-0.026	
23.885	-0.052	-0.022	
23.890	0.084	-0.019	
23.895	-0.031	-0.011	
23.900	-0.090	-0.008	
23.905	0.049	-0.012	
23.910	0.047	-0.010	
23.915	-0.089	-0.004	
23.920	-0.009	-0.007	
23.925	0.085	-0.008	
23.930	-0.061	-0.003	
23.935	-0.046	-0.003	
23.940	0.113	-0.005	
23.945	0.001	0.004	
23.950	-0.071	0.009	
23.955	0.068	0.007	
23.960	0.067	0.011	
23.965	-0.063	0.017	
23.970	0.020	0.015	
23.975	0.105	0.015	
23.980	-0.051	0.021	
23.985	-0.042	0.018	
23.990	0.116	0.012	
23.995	-0.002	0.016	
24.000	-0.077	0.017	
24.005	0.062	0.009	
24.010	0.050	0.009	
24.015	-0.080	0.011	
24.020	-0.002	0.004	
24.025	0.101	0.001	
24.030	-0.064	0.006	
24.035	-0.057	0.003	
24.040	0.088	-0.003	
24.045	-0.031	-0.001	
24.050	-0.098	-0.004	
24.055	0.026	-0.013	
24.060	0.020	-0.017	
24.065	-0.098	-0.017	
24.070	-0.020	-0.023	
24.075	0.061	-0.025	
24.080	-0.080	-0.021	
24.085	-0.071	-0.023	
24.090	0.072	-0.026	
24.095	-0.031	-0.021	
24.100	-0.098	-0.019	
24.105	0.038	-0.023	
24.110	0.055	-0.019	
24.115	-0.075	-0.011	
24.120	-0.014	-0.009	
24.125	0.073	-0.008	
24.130	-0.064	-0.003	
24.135	-0.058	-0.005	
24.140	0.102	-0.009	
24.145	-0.006	-0.003	
24.150	-0.083	0.001	
24.155	0.044	-0.003	
24.160	0.052	-0.002	
24.165	-0.075	0.002	
24.170	0.001	-0.001	
24.175	0.085	-0.001	
24.180	-0.057	0.004	
24.185	-0.048	0.002	
24.190	0.102	-0.001	
24.195	-0.009	0.004	
24.200	-0.074	0.006	
24.205	0.052	0.001	
24.210	0.044	0.002	
24.215	-0.081	0.005	
24.220	0.001	-0.000	
24.225	0.099	-0.002	
24.230	-0.054	0.005	
24.235	-0.052	0.004	
24.240	0.101	0.000	
24.245	-0.011	0.005	
24.250	-0.089	0.006	
24.255	0.041	-0.002	
24.260	0.049	-0.003	
24.265	-0.077	-0.000	
24.270	0.009	-0.003	
24.275	0.125	-0.001	
24.280	-0.040	0.010	
24.285	-0.040	0.014	
24.290	0.116	0.013	
24.295	0.017	0.020	
24.300	-0.055	0.024	
24.305	0.087	0.021	
24.310	0.073	0.025	
24.315	-0.068	0.030	
24.320	0.007	0.024	
24.325	0.101	0.019	
24.330	-0.051	0.020	
24.335	-0.055	0.015	
24.340	0.076	0.005	
24.345	-0.042	0.002	
24.350	-0.112	-0.005	
24.355	0.007	-0.020	
24.360	0.000	-0.028	
24.365	-0.112	-0.031	
24.370	-0.037	-0.039	
24.375	0.047	-0.043	
24.380	-0.080	-0.037	
24.385	-0.078	-0.037	
24.390	0.075	-0.037	
24.395	-0.022	-0.028	
24.400	-0.098	-0.022	
24.405	0.036	-0.023	
24.410	0.029	-0.019	
24.415	-0.107	-0.014	
24.420	-0.035	-0.019	
24.425	0.084	-0.023	
24.430	0.001	-0.014	
24.435	0.073	0.000	
24.440	0.363	0.031	
24.445	0.279	0.090	
24.450	0.093	0.149	
24.455	0.171	0.180	
24.460	0.065	0.185	
24.465	-0.118	0.162	
24.470	-0.071	0.110	
24.475	0.017	0.052	
24.480	-0.089	0.009	
24.485	-0.092	-0.026	
24.490	0.026	-0.050	
24.495	-0.060	-0.057	
24.500	-0.124	-0.060	
24.505	-0.003	-0.065	
24.510	0.012	-0.061	
24.515	-0.106	-0.051	
24.520	-0.038	-0.048	
24.525	0.061	-0.043	
24.530	-0.071	-0.033	
24.535	-0.080	-0.029	
24.540	0.070	-0.029	
24.545	-0.020	-0.022	
24.550	-0.100	-0.017	
24.555	0.027	-0.021	
24.560	0.027	-0.020	
24.565	-0.093	-0.016	
24.570	-0.014	-0.019	
24.575	0.084	-0.019	
24.580	-0.057	-0.011	
24.585	-0.058	-0.009	
24.590	0.104	-0.010	
24.595	0.003	-0.001	
24.600	-0.074	0.005	
24.605	0.062	0.003	
24.610	0.056	0.007	
24.615	-0.086	0.011	
24.620	0.000	0.006	
24.625	0.134	0.005	
24.630	-0.034	0.014	
24.635	-0.046	0.017	
24.640	0.113	0.015	
24.645	0.009	0.019	
24.650	-0.078	0.021	
24.655	0.059	0.013	
24.660	0.075	0.013	
24.665	-0.071	0.016	
24.670	0.009	0.012	
24.675	0.111	0.011	
24.680	-0.042	0.017	
24.685	-0.043	0.016	
24.690	0.113	0.012	
24.695	-0.003	0.016	
24.700	-0.081	0.016	
24.705	0.065	0.009	
24.710	0.056	0.008	
24.715	-0.090	0.011	
24.720	-0.020	0.003	
24.725	0.075	-0.004	
24.730	-0.068	-0.004	
24.735	-0.074	-0.009	
24.740	0.068	-0.017	
24.745	-0.022	-0.016	
24.750	-0.097	-0.015	
24.755	0.029	-0.021	
24.760	0.038	-0.020	
24.765	-0.092	-0.015	
24.770	-0.022	-0.018	
24.775	0.105	-0.017	
24.780	-0.046	-0.007	
24.785	-0.068	-0.003	
24.790	0.070	-0.006	
24.795	-0.023	-0.004	
24.800	-0.092	-0.005	
24.805	0.041	-0.013	
24.810	0.062	-0.012	
24.815	-0.074	-0.005	
24.820	0.001	-0.004	
24.825	0.113	-0.001	
24.830	-0.049	0.009	
24.835	-0.057	0.010	
24.840	0.081	0.005	
24.845	-0.008	0.006	
24.850	-0.087	0.004	
24.855	0.041	-0.004	
24.860	0.046	-0.005	
24.865	-0.092	-0.003	
24.870	-0.025	-0.009	
24.875	0.070	-0.014	
24.880	-0.058	-0.011	
24.885	-0.071	-0.013	
24.890	0.079	-0.017	
24.895	-0.013	-0.012	
24.900	-0.092	-0.010	
24.905	0.027	-0.014	
24.910	0.038	-0.014	
24.915	-0.087	-0.010	
24.920	-0.016	-0.014	
24.925	0.094	-0.014	
24.930	-0.043	-0.006	
24.935	-0.038	-0.002	
24.940	0.099	-0.001	
24.945	0.001	0.008	
24.950	-0.075	0.011	
24.955	0.058	0.007	
24.960	0.075	0.009	
24.965	-0.063	0.015	
24.970	0.003	0.013	
24.975	0.110	0.012	
24.980	-0.051	0.017	
24.985	-0.068	0.014	
24.990	0.078	0.005	
24.995	-0.019	0.002	
25.000	-0.092	-0.001	
25.005	0.032	-0.011	
25.010	0.010	-0.014	
25.015	-0.121	-0.017	
25.020	-0.051	-0.028	
25.025	0.038	-0.036	
25.030	-0.083	-0.037	
25.035	-0.084	-0.040	
25.040	0.049	-0.043	
25.045	-0.031	-0.038	
25.050	-0.101	-0.034	
25.055	0.026	-0.035	
25.060	0.029	-0.030	
25.065	-0.097	-0.023	
25.070	-0.028	-0.024	
25.075	0.067	-0.024	
25.080	-0.074	-0.018	
25.085	-0.061	-0.018	
25.090	0.140	-0.018	
25.095	0.119	0.001	
25.100	0.104	0.033	
25.105	0.354	0.074	
25.110	0.319	0.132	
25.115	0.026	0.184	
25.120	0.012	0.193	
25.125	0.047	0.166	
25.130	-0.104	0.122	
25.135	-0.101	0.066	
25.140	0.047	0.014	
25.145	-0.029	-0.015	
25.150	-0.104	-0.033	
25.155	0.010	-0.045	
25.160	0.013	-0.047	
25.165	-0.110	-0.042	
25.170	-0.049	-0.044	
25.175	0.044	-0.044	
25.180	-0.089	-0.039	
25.185	-0.092	-0.039	
25.190	0.055	-0.042	
25.195	-0.023	-0.036	
25.200	-0.106	-0.031	
25.205	0.015	-0.033	
25.210	0.029	-0.030	
25.215	-0.098	-0.024	
25.220	-0.032	-0.026	
25.225	0.072	-0.026	
25.230	-0.060	-0.019	
25.235	-0.066	-0.018	
25.240	0.091	-0.018	
25.245	-0.013	-0.010	
25.250	-0.092	-0.006	
25.255	0.047	-0.009	
25.260	0.055	-0.007	
25.265	-0.078	-0.001	
25.270	-0.005	-0.002	
25.275	0.111	-0.002	
25.280	-0.037	0.007	
25.285	-0.045	0.010	
25.290	0.116	0.009	
25.295	0.018	0.016	
25.300	-0.068	0.021	
25.305	0.055	0.016	
25.310	0.064	0.016	
25.315	-0.063	0.018	
25.320	0.020	0.014	
25.325	0.140	0.015	
25.330	-0.042	0.024	
25.335	-0.054	0.025	
25.340	0.107	0.018	
25.345	0.006	0.020	
25.350	-0.074	0.019	
25.355	0.049	0.010	
25.360	0.067	0.009	
25.365	-0.072	0.011	
25.370	-0.009	0.006	
25.375	0.097	0.003	
25.380	-0.049	0.007	
25.385	-0.060	0.005	
25.390	0.094	-0.000	
25.395	0.003	0.003	
25.400	-0.097	0.004	
25.405	0.023	-0.003	
25.410	0.035	-0.007	
25.415	-0.092	-0.008	
25.420	-0.026	-0.015	
25.425	0.079	-0.019	
25.430	-0.064	-0.014	
25.435	-0.074	-0.015	
25.440	0.079	-0.018	
25.445	-0.005	-0.013	
25.450	-0.090	-0.009	
25.455	0.024	-0.013	
25.460	0.039	-0.013	
25.465	-0.087	-0.009	
25.470	-0.017	-0.013	
25.475	0.087	-0.014	
25.480	-0.055	-0.007	
25.485	-0.063	-0.007	
25.490	0.104	-0.009	
25.495	0.007	-0.001	
25.500	-0.075	0.005	
25.505	0.059	0.003	
25.510	0.067	0.007	
25.515	-0.068	0.013	
25.520	-0.011	0.010	
25.525	0.097	0.007	
25.530	-0.048	0.011	
25.535	-0.063	0.008	
25.540	0.082	0.001	
25.545	0.001	0.002	
25.550	-0.084	0.002	
25.555	0.038	-0.004	
25.560	0.053	-0.004	
25.565	-0.080	-0.001	
25.570	-0.019	-0.005	
25.575	0.096	-0.007	
25.580	-0.048	-0.001	
25.585	-0.057	-0.000	
25.590	0.094	-0.003	
25.595	0.000	0.002	
25.600	-0.089	0.005	
25.605	0.036	-0.002	
25.610	0.075	-0.002	
25.615	-0.057	0.005	
25.620	-0.006	0.005	
25.625	0.122	0.006	
25.630	-0.025	0.016	
25.635	-0.038	0.019	
25.640	0.127	0.018	
25.645	0.035	0.026	
25.650	-0.063	0.031	
25.655	0.044	0.026	
25.660	0.049	0.022	
25.665	-0.090	0.018	
25.670	-0.034	0.005	
25.675	0.070	-0.006	
25.680	-0.071	-0.009	
25.685	-0.090	-0.016	
25.690	0.059	-0.026	
25.695	-0.032	-0.026	
25.700	-0.113	-0.026	
25.705	-0.013	-0.035	
25.710	0.021	-0.038	
25.715	-0.100	-0.035	
25.720	-0.045	-0.038	
25.725	0.070	-0.038	
25.730	-0.063	-0.029	
25.735	-0.071	-0.025	
25.740	0.079	-0.025	
25.745	-0.025	-0.017	
25.750	-0.118	-0.014	
25.755	0.012	-0.021	
25.760	0.079	-0.022	
25.765	0.020	-0.009	
25.770	0.223	0.014	
25.775	0.429	0.065	
25.780	0.218	0.137	
25.785	0.099	0.192	
25.790	0.181	0.211	
25.795	0.010	0.204	
25.800	-0.116	0.166	
25.805	-0.019	0.106	
25.810	0.021	0.051	
25.815	-0.113	0.010	
25.820	-0.060	-0.024	
25.825	0.039	-0.045	
25.830	-0.092	-0.051	
25.835	-0.106	-0.056	
25.840	0.030	-0.060	
25.845	-0.035	-0.055	
25.850	-0.127	-0.050	
25.855	-0.023	-0.053	
25.860	0.003	-0.052	
25.865	-0.110	-0.048	
25.870	-0.049	-0.050	
25.875	0.062	-0.048	
25.880	-0.069	-0.038	
25.885	-0.081	-0.033	
25.890	0.059	-0.033	
25.895	-0.022	-0.026	
25.900	-0.103	-0.022	
25.905	0.017	-0.025	
25.910	0.041	-0.024	
25.915	-0.078	-0.018	
25.920	-0.016	-0.017	
25.925	0.093	-0.015	
25.930	-0.049	-0.005	
25.935	-0.060	-0.003	
25.940	0.108	-0.004	
25.945	0.027	0.005	
25.950	-0.072	0.013	
25.955	0.058	0.011	
25.960	0.079	0.014	
25.965	-0.064	0.020	
25.970	0.006	0.017	
25.975	0.142	0.017	
25.980	-0.031	0.025	
25.985	-0.046	0.026	
25.990	0.114	0.022	
25.995	0.026	0.025	
26.000	-0.063	0.027	
26.005	0.046	0.020	
26.010	0.087	0.018	
26.015	-0.058	0.022	
26.020	0.003	0.018	
26.025	0.124	0.016	
26.030	-0.042	0.022	
26.035	-0.064	0.020	
26.040	0.087	0.011	
26.045	-0.002	0.010	
26.050	-0.090	0.007	
26.055	0.035	-0.003	
26.060	0.056	-0.005	
26.065	-0.086	-0.003	
26.070	-0.034	-0.008	
26.075	0.075	-0.012	
26.080	-0.068	-0.010	
26.085	-0.081	-0.014	
26.090	0.068	-0.021	
26.095	-0.016	-0.018	
26.100	-0.104	-0.017	
26.105	0.013	-0.023	
26.110	0.046	-0.023	
26.115	-0.092	-0.018	
26.120	-0.042	-0.021	
26.125	0.085	-0.022	
26.130	-0.048	-0.015	
26.135	-0.069	-0.013	
26.140	0.065	-0.015	
26.145	-0.008	-0.010	
26.150	-0.087	-0.008	
26.155	0.021	-0.013	
26.160	0.033	-0.013	
26.165	-0.089	-0.011	
26.170	-0.035	-0.016	
26.175	0.088	-0.019	
26.180	-0.048	-0.013	
26.185	-0.063	-0.010	
26.190	0.078	-0.012	
26.195	-0.006	-0.006	
26.200	-0.098	-0.004	
26.205	0.026	-0.010	
26.210	0.067	-0.011	
26.215	-0.074	-0.005	
26.220	-0.037	-0.006	
26.225	0.076	-0.009	
26.230	-0.060	-0.007	
26.235	-0.077	-0.009	
26.240	0.064	-0.016	
26.245	-0.005	-0.014	
26.250	-0.090	-0.012	
26.255	0.023	-0.017	
26.260	0.070	-0.015	
26.265	-0.075	-0.007	
26.270	0.001	-0.005	
26.275	0.143	-0.000	
26.280	-0.016	0.015	
26.285	-0.031	0.023	
26.290	0.107	0.024	
26.295	0.023	0.030	
26.300	-0.064	0.031	
26.305	0.049	0.023	
26.310	0.078	0.020	
26.315	-0.077	0.021	
26.320	-0.014	0.013	
26.325	0.110	0.007	
26.330	-0.054	0.010	
26.335	-0.078	0.006	
26.340	0.067	-0.004	
26.345	-0.014	-0.006	
26.350	-0.097	-0.009	
26.355	0.010	-0.017	
26.360	0.023	-0.021	
26.365	-0.104	-0.021	
26.370	-0.049	-0.028	
26.375	0.062	-0.033	
26.380	-0.063	-0.028	
26.385	-0.081	-0.028	
26.390	0.068	-0.030	
26.395	-0.011	-0.023	
26.400	-0.098	-0.018	
26.405	0.017	-0.021	
26.410	0.038	-0.020	
26.415	-0.101	-0.016	
26.420	-0.031	-0.020	
26.425	0.159	-0.019	
26.430	0.072	0.002	
26.435	0.151	0.033	
26.440	0.394	0.077	
26.445	0.259	0.140	
26.450	0.021	0.188	
26.455	0.072	0.194	
26.460	0.033	0.171	
26.465	-0.132	0.128	
26.470	-0.087	0.069	
26.475	0.033	0.014	
26.480	-0.078	-0.020	
26.485	-0.107	-0.043	
26.490	0.023	-0.060	
26.495	-0.034	-0.061	
26.500	-0.122	-0.058	
26.505	-0.016	-0.060	
26.510	0.013	-0.056	
26.515	-0.106	-0.048	
26.520	-0.057	-0.047	
26.525	0.046	-0.046	
26.530	-0.078	-0.039	
26.535	-0.097	-0.038	
26.540	0.052	-0.040	
26.545	-0.017	-0.035	
26.550	-0.095	-0.029	
26.555	0.029	-0.029	
26.560	0.053	-0.023	
26.565	-0.092	-0.014	
26.570	-0.034	-0.014	
26.575	0.091	-0.015	
26.580	-0.042	-0.008	
26.585	-0.069	-0.005	
26.590	0.088	-0.008	
26.595	0.020	-0.001	
26.600	-0.078	0.004	
26.605	0.058	0.003	
26.610	0.099	0.008	
26.615	-0.060	0.018	
26.620	-0.005	0.018	
26.625	0.124	0.018	
26.630	-0.028	0.024	
26.635	-0.063	0.023	
26.640	0.094	0.015	
26.645	0.036	0.016	
26.650	-0.074	0.018	
26.655	0.047	0.013	
26.660	0.088	0.013	
26.665	-0.058	0.018	
26.670	-0.008	0.016	
26.675	0.127	0.014	
26.680	-0.025	0.021	
26.685	-0.057	0.021	
26.690	0.101	0.016	
26.695	0.030	0.018	
26.700	-0.066	0.020	
26.705	0.038	0.015	
26.710	0.065	0.013	
26.715	-0.083	0.013	
26.720	-0.035	0.005	
26.725	0.088	-0.003	
26.730	-0.051	-0.002	
26.735	-0.077	-0.006	
26.740	0.065	-0.013	
26.745	-0.013	-0.012	
26.750	-0.101	-0.012	
26.755	0.020	-0.019	
26.760	0.036	-0.020	
26.765	-0.097	-0.017	
26.770	-0.049	-0.022	
26.775	0.070	-0.026	
26.780	-0.054	-0.022	
26.785	-0.083	-0.021	
26.790	0.062	-0.024	
26.795	0.003	-0.019	
26.800	-0.095	-0.014	
26.805	0.012	-0.017	
26.810	0.061	-0.016	
26.815	-0.077	-0.010	
26.820	-0.020	-0.010	
26.825	0.093	-0.010	
26.830	-0.048	-0.002	
26.835	-0.078	-0.002	
26.840	0.065	-0.008	
26.845	0.000	-0.007	
26.850	-0.098	-0.007	
26.855	0.018	-0.013	
26.860	0.062	-0.014	
26.865	-0.074	-0.009	
26.870	-0.035	-0.010	
26.875	0.097	-0.011	
26.880	-0.040	-0.004	
26.885	-0.075	-0.002	
26.890	0.072	-0.007	
26.895	0.009	-0.004	
26.900	-0.084	-0.002	
26.905	0.046	-0.006	
26.910	0.088	-0.002	
26.915	-0.066	0.007	
26.920	-0.016	0.008	
26.925	0.124	0.008	
26.930	-0.022	0.016	
26.935	-0.045	0.019	
26.940	0.125	0.017	
26.945	0.042	0.025	
26.950	-0.077	0.030	
26.955	0.033	0.024	
26.960	0.056	0.018	
26.965	-0.090	0.015	
26.970	-0.042	0.003	
26.975	0.073	-0.008	
26.980	-0.063	-0.010	
26.985	-0.093	-0.016	
26.990	0.044	-0.026	
26.995	-0.014	-0.026	
27.000	-0.107	-0.026	
27.005	-0.003	-0.032	
27.010	0.044	-0.032	
27.015	-0.089	-0.026	
27.020	-0.037	-0.027	
27.025	0.097	-0.025	
27.030	-0.038	-0.014	
27.035	-0.089	-0.009	
27.040	0.042	-0.013	
27.045	-0.016	-0.013	
27.050	-0.107	-0.016	
27.055	0.021	-0.023	
27.060	0.137	-0.020	
27.065	0.056	0.002	
27.070	0.235	0.035	
27.075	0.415	0.088	
27.080	0.177	0.155	
27.085	0.013	0.196	
27.090	0.105	0.194	
27.095	-0.034	0.166	
27.100	-0.153	0.116	
27.105	-0.058	0.052	
27.110	0.003	-0.002	
27.115	-0.110	-0.035	
27.120	-0.078	-0.059	
27.125	0.035	-0.070	
27.130	-0.068	-0.066	
27.135	-0.100	-0.062	
27.140	0.036	-0.058	
27.145	-0.013	-0.048	
27.150	-0.106	-0.038	
27.155	-0.013	-0.037	
27.160	0.029	-0.035	
27.165	-0.097	-0.029	
27.170	-0.054	-0.031	
27.175	0.076	-0.033	
27.180	-0.040	-0.024	
27.185	-0.084	-0.020	
27.190	0.062	-0.021	
27.195	0.000	-0.016	
27.200	-0.090	-0.011	
27.205	0.027	-0.014	
27.210	0.085	-0.011	
27.215	-0.071	-0.001	
27.220	-0.034	-0.000	
27.225	0.096	-0.002	
27.230	-0.035	0.003	
27.235	-0.064	0.004	
27.240	0.097	-0.000	
27.245	0.023	0.005	
27.250	-0.075	0.010	
27.255	0.033	0.006	
27.260	0.085	0.007	
27.265	-0.051	0.013	
27.270	-0.019	0.012	
27.275	0.113	0.010	
27.280	-0.028	0.016	
27.285	-0.069	0.015	
27.290	0.084	0.008	
27.295	0.023	0.009	
27.300	-0.078	0.010	
27.305	0.033	0.004	
27.310	0.076	0.003	
27.315	-0.071	0.008	
27.320	-0.029	0.004	
27.325	0.108	0.001	
27.330	-0.026	0.006	
27.335	-0.069	0.007	
27.340	0.087	0.003	
27.345	0.012	0.005	
27.350	-0.089	0.007	
27.355	0.006	-0.001	
27.360	0.042	-0.007	
27.365	-0.086	-0.008	
27.370	-0.049	-0.015	
27.375	0.073	-0.021	
27.380	-0.045	-0.018	
27.385	-0.077	-0.017	
27.390	0.052	-0.020	
27.395	-0.005	-0.017	
27.400	-0.101	-0.015	
27.405	0.024	-0.020	
27.410	0.084	-0.017	
27.415	-0.083	-0.008	
27.420	-0.058	-0.008	
27.425	0.073	-0.012	
27.430	-0.032	-0.010	
27.435	-0.075	-0.010	
27.440	0.070	-0.013	
27.445	0.032	-0.008	
27.450	-0.081	-0.002	
27.455	0.026	-0.003	
27.460	0.070	-0.001	
27.465	-0.069	0.004	
27.470	-0.023	0.002	
27.475	0.117	0.001	
27.480	-0.026	0.008	
27.485	-0.078	0.010	
27.490	0.068	0.004	
27.495	0.021	0.004	
27.500	-0.086	0.004	
27.505	0.017	-0.003	
27.510	0.064	-0.005	
27.515	-0.077	-0.002	
27.520	-0.037	-0.006	
27.525	0.105	-0.009	
27.530	-0.034	-0.002	
27.535	-0.063	0.000	
27.540	0.094	-0.002	
27.545	0.047	0.006	
27.550	-0.064	0.014	
27.555	0.046	0.014	
27.560	0.114	0.018	
27.565	-0.049	0.027	
27.570	-0.028	0.026	
27.575	0.101	0.020	
27.580	-0.031	0.020	
27.585	-0.074	0.015	
27.590	0.062	0.004	
27.595	-0.005	0.000	
27.600	-0.103	-0.004	
27.605	-0.016	-0.016	
27.610	0.042	-0.023	
27.615	-0.104	-0.024	
27.620	-0.055	-0.030	
27.625	0.084	-0.034	
27.630	-0.057	-0.027	
27.635	-0.093	-0.024	
27.640	0.050	-0.027	
27.645	0.003	-0.023	
27.650	-0.089	-0.019	
27.655	0.015	-0.020	
27.660	0.065	-0.017	
27.665	-0.081	-0.009	
27.670	-0.060	-0.011	
27.675	0.075	-0.016	
27.680	-0.017	-0.012	
27.685	0.010	-0.005	
27.690	0.304	0.013	
27.695	0.301	0.062	
27.700	0.090	0.121	
27.705	0.125	0.155	
27.710	0.090	0.163	
27.715	-0.103	0.146	
27.720	-0.090	0.102	
27.725	0.009	0.048	
27.730	-0.075	0.006	
27.735	-0.092	-0.026	
27.740	0.039	-0.048	
27.745	-0.009	-0.050	
27.750	-0.104	-0.046	
27.755	-0.002	-0.046	
27.760	0.056	-0.040	
27.765	-0.092	-0.028	
27.770	-0.058	-0.026	
27.775	0.072	-0.027	
27.780	-0.054	-0.020	
27.785	-0.087	-0.019	
27.790	0.058	-0.023	
27.795	0.020	-0.018	
27.800	-0.081	-0.012	
27.805	0.020	-0.012	
27.810	0.084	-0.008	
27.815	-0.068	0.001	
27.820	-0.037	0.001	
27.825	0.104	-0.001	
27.830	-0.042	0.004	
27.835	-0.080	0.003	
27.840	0.067	-0.004	
27.845	0.029	-0.003	
27.850	-0.077	0.000	
27.855	0.035	-0.002	
27.860	0.084	0.000	
27.865	-0.068	0.008	
27.870	-0.034	0.006	
27.875	0.105	0.003	
27.880	-0.022	0.008	
27.885	-0.066	0.009	
27.890	0.088	0.004	
27.895	0.052	0.009	
27.900	-0.074	0.015	
27.905	0.027	0.012	
27.910	0.088	0.012	
27.915	-0.057	0.016	
27.920	-0.023	0.013	
27.925	0.105	0.009	
27.930	-0.028	0.013	
27.935	-0.068	0.012	
27.940	0.073	0.005	
27.945	0.026	0.005	
27.950	-0.081	0.006	
27.955	0.013	0.000	
27.960	0.053	-0.003	
27.965	-0.078	-0.002	
27.970	-0.042	-0.008	
27.975	0.094	-0.012	
27.980	-0.046	-0.008	
27.985	-0.087	-0.008	
27.990	0.055	-0.014	
27.995	0.015	-0.013	
28.000	-0.089	-0.010	
28.005	0.006	-0.014	
28.010	0.061	-0.014	
28.015	-0.074	-0.009	
28.020	-0.046	-0.011	
28.025	0.079	-0.014	
28.030	-0.038	-0.009	
28.035	-0.078	-0.009	
28.040	0.062	-0.013	
28.045	0.020	-0.010	
28.050	-0.097	-0.006	
28.055	-0.006	-0.011	
28.060	0.062	-0.014	
28.065	-0.078	-0.011	
28.070	-0.043	-0.014	
28.075	0.087	-0.016	
28.080	-0.034	-0.010	
28.085	-0.075	-0.008	
28.090	0.072	-0.010	
28.095	0.018	-0.006	
28.100	-0.087	-0.001	
28.105	0.023	-0.005	
28.110	0.078	-0.005	
28.115	-0.069	0.002	
28.120	-0.037	-0.000	
28.125	0.105	-0.003	
28.130	-0.028	0.003	
28.135	-0.083	0.004	
28.140	0.068	-0.002	
28.145	0.033	-0.001	
28.150	-0.069	0.003	
28.155	0.029	0.001	
28.160	0.090	0.003	
28.165	-0.060	0.011	
28.170	-0.020	0.010	
28.175	0.139	0.010	
28.180	0.001	0.020	
28.185	-0.064	0.024	
28.190	0.072	0.020	
28.195	0.030	0.019	
28.200	-0.084	0.017	
28.205	0.009	0.007	
28.210	0.053	0.000	
28.215	-0.080	-0.002	
28.220	-0.060	-0.010	
28.225	0.052	-0.019	
28.230	-0.064	-0.021	
28.235	-0.106	-0.026	
28.240	0.026	-0.036	
28.245	-0.008	-0.037	
28.250	-0.101	-0.035	
28.255	-0.017	-0.038	
28.260	0.035	-0.037	
28.265	-0.087	-0.031	
28.270	-0.058	-0.032	
28.275	0.079	-0.032	
28.280	-0.040	-0.023	
28.285	-0.086	-0.019	
28.290	0.033	-0.021	
28.295	0.006	-0.019	
28.300	-0.066	-0.016	
28.305	0.114	-0.012	
28.310	0.287	0.013	
28.315	0.174	0.063	
28.320	0.177	0.113	
28.325	0.215	0.151	
28.330	-0.023	0.169	
28.335	-0.115	0.149	
28.340	-0.016	0.099	
28.345	-0.054	0.047	
28.350	-0.124	0.002	
28.355	-0.026	-0.036	
28.360	0.033	-0.055	
28.365	-0.089	-0.056	
28.370	-0.061	-0.056	
28.375	0.068	-0.052	
28.380	-0.040	-0.039	
28.385	-0.086	-0.030	
28.390	0.042	-0.028	
28.395	-0.006	-0.022	
28.400	-0.098	-0.018	
28.405	0.009	-0.022	
28.410	0.046	-0.021	
28.415	-0.087	-0.016	
28.420	-0.058	-0.020	
28.425	0.076	-0.024	
28.430	-0.040	-0.019	
28.435	-0.080	-0.017	
28.440	0.055	-0.019	
28.445	0.021	-0.015	
28.450	-0.081	-0.009	
28.455	0.012	-0.010	
28.460	0.085	-0.008	
28.465	-0.068	-0.000	
28.470	-0.037	-0.000	
28.475	0.105	-0.002	
28.480	-0.023	0.005	
28.485	-0.068	0.007	
28.490	0.075	0.002	
28.495	0.035	0.005	
28.500	-0.080	0.009	
28.505	0.012	0.004	
28.510	0.090	0.002	
28.515	-0.057	0.007	
28.520	-0.026	0.006	
28.525	0.124	0.005	
28.530	-0.009	0.013	
28.535	-0.068	0.017	
28.540	0.087	0.013	
28.545	0.038	0.015	
28.550	-0.075	0.017	
28.555	0.029	0.011	
28.560	0.110	0.011	
28.565	-0.057	0.017	
28.570	-0.037	0.015	
28.575	0.117	0.011	
28.580	-0.009	0.015	
28.585	-0.074	0.016	
28.590	0.056	0.009	
28.595	0.012	0.006	
28.600	-0.092	0.003	
28.605	0.001	-0.007	
28.610	0.062	-0.012	
28.615	-0.080	-0.010	
28.620	-0.054	-0.014	
28.625	0.082	-0.018	
28.630	-0.043	-0.014	
28.635	-0.081	-0.013	
28.640	0.053	-0.017	
28.645	0.006	-0.015	
28.650	-0.093	-0.012	
28.655	-0.005	-0.017	
28.660	0.067	-0.018	
28.665	-0.074	-0.013	
28.670	-0.045	-0.013	
28.675	0.088	-0.015	
28.680	-0.026	-0.008	
28.685	-0.072	-0.005	
28.690	0.065	-0.007	
28.695	0.021	-0.003	
28.700	-0.086	0.000	
28.705	0.018	-0.004	
28.710	0.099	-0.003	
28.715	-0.057	0.005	
28.720	-0.035	0.006	
28.725	0.102	0.004	
28.730	-0.029	0.009	
28.735	-0.074	0.008	
28.740	0.068	0.001	
28.745	0.015	0.001	
28.750	-0.098	0.001	
28.755	-0.006	-0.008	
28.760	0.067	-0.013	
28.765	-0.068	-0.010	
28.770	-0.040	-0.012	
28.775	0.091	-0.013	
28.780	-0.028	-0.006	
28.785	-0.069	-0.003	
28.790	0.073	-0.005	
28.795	0.032	-0.000	
28.800	-0.081	0.005	
28.805	0.023	0.001	
28.810	0.119	0.003	
28.815	-0.042	0.014	
28.820	-0.023	0.017	
28.825	0.122	0.017	
28.830	-0.011	0.023	
