Vernier Format 2
ecg1.txt 10/19/2025 10:42:49
Run 1
Time	Potential	EKG	
T	P	E	
s	mV	mV	

0.000	-0.162	-0.007	
0.005	-0.139	-0.031	
0.010	-0.269	-0.070	
0.015	-0.177	-0.115	
0.020	-0.052	-0.148	
0.025	-0.202	-0.159	
0.030	-0.207	-0.165	
0.035	-0.037	-0.168	
0.040	-0.106	-0.156	
0.045	-0.225	-0.144	
0.050	-0.100	-0.141	
0.055	-0.078	-0.137	
0.060	-0.258	-0.133	
0.065	-0.194	-0.143	
0.070	-0.058	-0.154	
0.075	-0.228	-0.156	
0.080	-0.278	-0.165	
0.085	-0.144	-0.181	
0.090	-0.223	-0.193	
0.095	-0.339	-0.205	
0.100	-0.220	-0.226	
0.105	-0.181	-0.238	
0.110	-0.346	-0.243	
0.115	-0.283	-0.254	
0.120	-0.133	-0.261	
0.125	-0.234	-0.252	
0.130	-0.246	-0.240	
0.135	-0.035	-0.225	
0.140	-0.040	-0.193	
0.145	-0.168	-0.154	
0.150	-0.006	-0.125	
0.155	0.104	-0.091	
0.160	-0.095	-0.052	
0.165	0.013	-0.027	
0.170	0.383	0.005	
0.175	0.292	0.069	
0.180	0.269	0.145	
0.185	0.661	0.224	
0.190	0.582	0.322	
0.195	0.293	0.408	
0.200	0.582	0.456	
0.205	0.835	0.501	
0.210	0.574	0.561	
0.215	0.698	0.611	
0.220	1.083	0.664	
0.225	0.828	0.737	
0.230	0.542	0.789	
0.235	0.909	0.799	
0.240	0.884	0.806	
0.245	0.383	0.802	
0.250	0.573	0.754	
0.255	0.816	0.700	
0.260	0.383	0.664	
0.265	0.316	0.611	
0.270	0.728	0.552	
0.275	0.519	0.528	
0.280	0.258	0.511	
0.285	0.728	0.490	
0.290	0.805	0.506	
0.295	0.325	0.543	
0.300	0.585	0.555	
0.305	0.996	0.574	
0.310	0.563	0.622	
0.315	0.501	0.652	
0.320	1.036	0.666	
0.325	0.739	0.703	
0.330	0.325	0.722	
0.335	0.796	0.699	
0.340	0.892	0.689	
0.345	0.285	0.688	
0.350	0.463	0.650	
0.355	0.825	0.605	
0.360	0.255	0.581	
0.365	0.093	0.527	
0.370	0.597	0.452	
0.375	0.290	0.404	
0.380	-0.075	0.357	
0.385	0.321	0.289	
0.390	0.409	0.247	
0.395	-0.100	0.229	
0.400	0.042	0.189	
0.405	0.409	0.153	
0.410	-0.098	0.142	
0.415	-0.168	0.113	
0.420	0.238	0.068	
0.425	-0.005	0.048	
0.430	-0.229	0.029	
0.435	0.061	-0.004	
0.440	0.156	-0.018	
0.445	-0.219	-0.014	
0.450	-0.086	-0.026	
0.455	0.232	-0.035	
0.460	-0.132	-0.021	
0.465	-0.167	-0.020	
0.470	0.181	-0.029	
0.475	-0.034	-0.020	
0.480	-0.229	-0.018	
0.485	0.023	-0.035	
0.490	0.024	-0.044	
0.495	-0.297	-0.051	
0.500	-0.182	-0.080	
0.505	0.055	-0.107	
0.510	-0.251	-0.116	
0.515	-0.388	-0.137	
0.520	-0.408	-0.189	
0.525	-0.789	-0.271	
0.530	-0.992	-0.399	
0.535	-0.993	-0.562	
0.540	-0.993	-0.722	
0.545	-0.993	-0.850	
0.550	-0.992	-0.940	
0.555	-0.816	-0.985	
0.560	-0.941	-0.991	
0.565	-0.850	-0.974	
0.570	-0.486	-0.930	
0.575	-0.405	-0.840	
0.580	-0.371	-0.717	
0.585	0.035	-0.576	
0.590	0.236	-0.403	
0.595	-0.139	-0.227	
0.600	0.068	-0.097	
0.605	0.522	0.009	
0.610	0.117	0.116	
0.615	0.124	0.188	
0.620	0.759	0.240	
0.625	0.608	0.326	
0.630	0.330	0.414	
0.635	0.924	0.482	
0.640	1.097	0.577	
0.645	0.531	0.686	
0.650	0.785	0.749	
0.655	1.240	0.796	
0.660	0.745	0.857	
0.665	0.670	0.886	
0.670	1.225	0.889	
0.675	0.981	0.916	
0.680	0.556	0.933	
0.685	1.037	0.913	
0.690	1.171	0.911	
0.695	0.534	0.922	
0.700	0.722	0.894	
0.705	1.156	0.860	
0.710	0.589	0.852	
0.715	0.461	0.819	
0.720	1.116	0.774	
0.725	0.887	0.774	
0.730	0.481	0.786	
0.735	1.022	0.780	
0.740	1.165	0.803	
0.745	0.501	0.844	
0.750	0.712	0.841	
0.755	1.167	0.827	
0.760	0.531	0.833	
0.765	0.389	0.803	
0.770	1.032	0.748	
0.775	0.797	0.733	
0.780	0.340	0.727	
0.785	0.828	0.696	
0.790	0.991	0.691	
0.795	0.357	0.707	
0.800	0.557	0.688	
0.805	0.993	0.666	
0.810	0.394	0.668	
0.815	0.223	0.638	
0.820	0.791	0.580	
0.825	0.515	0.552	
0.830	0.039	0.522	
0.835	0.553	0.464	
0.840	0.702	0.435	
0.845	0.140	0.437	
0.850	0.372	0.420	
0.855	0.869	0.415	
0.860	0.325	0.448	
0.865	0.206	0.462	
0.870	0.808	0.454	
0.875	0.510	0.474	
0.880	0.052	0.483	
0.885	0.472	0.449	
0.890	0.487	0.417	
0.895	-0.095	0.387	
0.900	0.042	0.316	
0.905	0.385	0.241	
0.910	-0.084	0.193	
0.915	-0.156	0.136	
0.920	0.233	0.076	
0.925	0.007	0.047	
0.930	-0.208	0.026	
0.935	0.050	-0.006	
0.940	0.113	-0.020	
0.945	-0.251	-0.022	
0.950	-0.139	-0.044	
0.955	0.114	-0.065	
0.960	-0.199	-0.069	
0.965	-0.229	-0.082	
0.970	0.097	-0.099	
0.975	-0.058	-0.093	
0.980	-0.202	-0.083	
0.985	0.174	-0.077	
0.990	0.211	-0.043	
0.995	-0.242	-0.002	
1.000	-0.159	-0.001	
1.005	-0.003	-0.027	
1.010	-0.281	-0.055	
1.015	-0.298	-0.099	
1.020	-0.005	-0.143	
1.025	-0.164	-0.160	
1.030	-0.339	-0.170	
1.035	-0.104	-0.187	
1.040	-0.098	-0.191	
1.045	-0.381	-0.189	
1.050	-0.265	-0.205	
1.055	-0.103	-0.222	
1.060	-0.350	-0.227	
1.065	-0.391	-0.243	
1.070	-0.103	-0.263	
1.075	-0.226	-0.262	
1.080	-0.364	-0.256	
1.085	-0.129	-0.255	
1.090	-0.098	-0.241	
1.095	-0.365	-0.222	
1.100	-0.240	-0.220	
1.105	-0.068	-0.221	
1.110	-0.323	-0.213	
1.115	-0.349	-0.219	
1.120	-0.097	-0.233	
1.125	-0.274	-0.234	
1.130	-0.445	-0.242	
1.135	-0.216	-0.265	
1.140	-0.194	-0.276	
1.145	-0.442	-0.280	
1.150	-0.318	-0.294	
1.155	-0.162	-0.304	
1.160	-0.423	-0.302	
1.165	-0.443	-0.312	
1.170	-0.203	-0.330	
1.175	-0.342	-0.332	
1.180	-0.497	-0.336	
1.185	-0.269	-0.350	
1.190	-0.260	-0.352	
1.195	-0.491	-0.347	
1.200	-0.350	-0.354	
1.205	-0.239	-0.358	
1.210	-0.520	-0.356	
1.215	-0.562	-0.374	
1.220	-0.367	-0.407	
1.225	-0.521	-0.432	
1.230	-0.663	-0.460	
1.235	-0.419	-0.494	
1.240	-0.365	-0.505	
1.245	-0.562	-0.496	
1.250	-0.436	-0.490	
1.255	-0.280	-0.475	
1.260	-0.537	-0.451	
1.265	-0.541	-0.443	
1.270	-0.252	-0.444	
1.275	-0.358	-0.427	
1.280	-0.497	-0.408	
1.285	-0.217	-0.395	
1.290	-0.142	-0.366	
1.295	-0.344	-0.323	
1.300	-0.153	-0.287	
1.305	0.163	-0.239	
1.310	-0.165	-0.171	
1.315	-0.159	-0.121	
1.320	0.206	-0.087	
1.325	-0.008	-0.043	
1.330	-0.167	-0.012	
1.335	0.124	-0.005	
1.340	0.168	0.011	
1.345	-0.170	0.030	
1.350	-0.020	0.025	
1.355	0.287	0.022	
1.360	-0.087	0.037	
1.365	-0.087	0.039	
1.370	0.305	0.035	
1.375	0.075	0.054	
1.380	-0.080	0.071	
1.385	0.376	0.079	
1.390	0.460	0.121	
1.395	0.049	0.181	
1.400	0.227	0.214	
1.405	0.391	0.231	
1.410	-0.126	0.238	
1.415	-0.158	0.197	
1.420	0.149	0.127	
1.425	-0.057	0.073	
1.430	-0.197	0.025	
1.435	0.097	-0.019	
1.440	0.142	-0.031	
1.445	-0.174	-0.021	
1.450	-0.058	-0.025	
1.455	0.163	-0.028	
1.460	-0.168	-0.020	
1.465	-0.179	-0.028	
1.470	0.120	-0.046	
1.475	-0.074	-0.047	
1.480	-0.216	-0.050	
1.485	0.101	-0.061	
1.490	0.143	-0.049	
1.495	-0.170	-0.024	
1.500	-0.055	-0.019	
1.505	0.240	-0.015	
1.510	-0.075	0.006	
1.515	-0.064	0.016	
1.520	0.351	0.025	
1.525	0.128	0.060	
1.530	-0.042	0.092	
1.535	0.372	0.110	
1.540	0.406	0.150	
1.545	-0.014	0.196	
1.550	0.195	0.209	
1.555	0.498	0.217	
1.560	0.029	0.237	
1.565	-0.009	0.228	
1.570	0.403	0.201	
1.575	0.159	0.195	
1.580	-0.017	0.188	
1.585	0.377	0.173	
1.590	0.409	0.187	
1.595	-0.057	0.212	
1.600	0.285	0.211	
1.605	0.721	0.229	
1.610	0.145	0.282	
1.615	0.189	0.311	
1.620	0.863	0.332	
1.625	0.490	0.392	
1.630	0.013	0.435	
1.635	0.504	0.423	
1.640	0.479	0.408	
1.645	-0.167	0.385	
1.650	-0.022	0.309	
1.655	0.340	0.220	
1.660	-0.181	0.158	
1.665	-0.236	0.086	
1.670	0.183	0.014	
1.675	-0.119	-0.024	
1.680	-0.339	-0.056	
1.685	-0.006	-0.099	
1.690	0.003	-0.118	
1.695	-0.367	-0.122	
1.700	-0.211	-0.145	
1.705	0.050	-0.164	
1.710	-0.321	-0.163	
1.715	-0.376	-0.177	
1.720	-0.026	-0.202	
1.725	-0.207	-0.206	
1.730	-0.453	-0.211	
1.735	-0.136	-0.233	
1.740	-0.081	-0.237	
1.745	-0.431	-0.229	
1.750	-0.249	-0.238	
1.755	0.032	-0.240	
1.760	-0.329	-0.220	
1.765	-0.338	-0.214	
1.770	0.091	-0.214	
1.775	-0.141	-0.188	
1.780	-0.362	-0.166	
1.785	-0.029	-0.166	
1.790	0.042	-0.153	
1.795	-0.320	-0.130	
1.800	-0.089	-0.127	
1.805	0.435	-0.104	
1.810	-0.068	-0.041	
1.815	-0.150	0.004	
1.820	0.318	0.024	
1.825	-0.087	0.047	
1.830	-0.346	0.041	
1.835	0.018	-0.005	
1.840	0.134	-0.035	
1.845	-0.265	-0.042	
1.850	-0.069	-0.059	
1.855	0.383	-0.058	
1.860	-0.167	-0.022	
1.865	-0.197	-0.007	
1.870	0.342	-0.008	
1.875	-0.009	0.014	
1.880	-0.222	0.028	
1.885	0.226	0.019	
1.890	0.281	0.034	
1.895	-0.217	0.062	
1.900	-0.014	0.056	
1.905	0.411	0.051	
1.910	-0.148	0.069	
1.915	-0.181	0.062	
1.920	0.374	0.041	
1.925	0.006	0.050	
1.930	-0.246	0.051	
1.935	0.201	0.029	
1.940	0.246	0.032	
1.945	-0.229	0.048	
1.950	-0.032	0.036	
1.955	0.438	0.030	
1.960	-0.107	0.056	
1.965	-0.126	0.063	
1.970	0.441	0.058	
1.975	0.085	0.084	
1.980	-0.165	0.102	
1.985	0.321	0.095	
1.990	0.321	0.111	
1.995	-0.182	0.135	
2.000	0.026	0.120	
2.005	0.382	0.103	
2.010	-0.162	0.104	
2.015	-0.173	0.080	
2.020	0.288	0.043	
2.025	-0.063	0.033	
2.030	-0.275	0.017	
2.035	0.114	-0.017	
2.040	0.168	-0.025	
2.045	-0.254	-0.016	
2.050	-0.074	-0.027	
2.055	0.259	-0.034	
2.060	-0.214	-0.021	
2.065	-0.211	-0.028	
2.070	0.243	-0.044	
2.075	-0.075	-0.035	
2.080	-0.255	-0.032	
2.085	0.160	-0.044	
2.090	0.186	-0.030	
2.095	-0.237	-0.004	
2.100	0.001	-0.004	
2.105	0.339	0.002	
2.110	-0.168	0.028	
2.115	-0.158	0.028	
2.120	0.336	0.017	
2.125	-0.023	0.030	
2.130	-0.231	0.034	
2.135	0.209	0.017	
2.140	0.188	0.023	
2.145	-0.232	0.038	
2.150	-0.055	0.023	
2.155	0.275	0.008	
2.160	-0.214	0.012	
2.165	-0.211	-0.005	
2.170	0.324	-0.027	
2.175	-0.016	-0.013	
2.180	-0.239	-0.002	
2.185	0.255	-0.007	
2.190	0.258	0.017	
2.195	-0.236	0.050	
2.200	-0.011	0.046	
2.205	0.415	0.043	
2.210	-0.133	0.066	
2.215	-0.087	0.067	
2.220	0.647	0.071	
2.225	0.267	0.128	
2.230	-0.118	0.182	
2.235	0.314	0.190	
2.240	0.195	0.192	
2.245	-0.330	0.175	
2.250	-0.152	0.106	
2.255	0.146	0.030	
2.260	-0.265	-0.019	
2.265	-0.242	-0.068	
2.270	0.279	-0.101	
2.275	-0.057	-0.087	
2.280	-0.271	-0.069	
2.285	0.172	-0.067	
2.290	0.226	-0.040	
2.295	-0.236	-0.001	
2.300	0.003	0.007	
2.305	0.353	0.015	
2.310	-0.177	0.041	
2.315	-0.185	0.037	
2.320	0.363	0.020	
2.325	-0.019	0.032	
2.330	-0.243	0.036	
2.335	0.238	0.019	
2.340	0.270	0.030	
2.345	-0.239	0.055	
2.350	-0.002	0.048	
2.355	0.424	0.043	
2.360	-0.130	0.066	
2.365	-0.095	0.069	
2.370	0.545	0.068	
2.375	0.133	0.107	
2.380	-0.147	0.137	
2.385	0.368	0.136	
2.390	0.377	0.155	
2.395	-0.147	0.181	
2.400	0.143	0.170	
2.405	0.501	0.164	
2.410	-0.066	0.180	
2.415	-0.058	0.169	
2.420	0.522	0.148	
2.425	0.120	0.162	
2.430	-0.139	0.167	
2.435	0.340	0.147	
2.440	0.333	0.151	
2.445	-0.182	0.163	
2.450	0.064	0.140	
2.455	0.363	0.117	
2.460	-0.205	0.111	
2.465	-0.202	0.077	
2.470	0.236	0.028	
2.475	-0.104	0.007	
2.480	-0.260	-0.016	
2.485	0.183	-0.044	
2.490	0.137	-0.039	
2.495	-0.284	-0.021	
2.500	-0.113	-0.034	
2.505	0.113	-0.052	
2.510	-0.329	-0.061	
2.515	-0.335	-0.095	
2.520	-0.032	-0.142	
2.525	-0.277	-0.170	
2.530	-0.474	-0.201	
2.535	-0.193	-0.245	
2.540	-0.193	-0.270	
2.545	-0.477	-0.281	
2.550	-0.271	-0.300	
2.555	-0.032	-0.302	
2.560	-0.358	-0.280	
2.565	-0.312	-0.266	
2.570	0.094	-0.251	
2.575	-0.174	-0.211	
2.580	-0.330	-0.179	
2.585	0.055	-0.167	
2.590	0.052	-0.138	
2.595	-0.278	-0.103	
2.600	-0.037	-0.092	
2.605	0.336	-0.071	
2.610	-0.168	-0.026	
2.615	-0.141	-0.005	
2.620	0.426	0.005	
2.625	0.050	0.044	
2.630	-0.095	0.075	
2.635	0.596	0.097	
2.640	0.599	0.169	
2.645	-0.084	0.251	
2.650	0.107	0.270	
2.655	0.336	0.251	
2.660	-0.203	0.222	
2.665	-0.177	0.155	
2.670	0.347	0.084	
2.675	-0.011	0.057	
2.680	-0.168	0.040	
2.685	0.345	0.024	
2.690	0.285	0.049	
2.695	-0.185	0.086	
2.700	0.064	0.088	
2.705	0.394	0.088	
2.710	-0.116	0.105	
2.715	-0.058	0.099	
2.720	0.504	0.091	
2.725	0.087	0.117	
2.730	-0.100	0.136	
2.735	0.447	0.135	
2.740	0.382	0.164	
2.745	-0.098	0.199	
2.750	0.279	0.201	
2.755	0.579	0.213	
2.760	-0.016	0.245	
2.765	0.015	0.242	
2.770	0.577	0.223	
2.775	0.134	0.232	
2.780	-0.106	0.228	
2.785	0.408	0.200	
2.790	0.292	0.195	
2.795	-0.150	0.195	
2.800	0.157	0.166	
2.805	0.450	0.150	
2.810	-0.057	0.160	
2.815	0.068	0.154	
2.820	0.649	0.157	
2.825	0.252	0.204	
2.830	0.053	0.245	
2.835	0.646	0.266	
2.840	0.567	0.316	
2.845	0.065	0.367	
2.850	0.452	0.377	
2.855	0.670	0.389	
2.860	0.065	0.408	
2.865	0.157	0.387	
2.870	0.652	0.352	
2.875	0.198	0.347	
2.880	0.010	0.329	
2.885	0.557	0.296	
2.890	0.458	0.297	
2.895	-0.023	0.310	
2.900	0.285	0.292	
2.905	0.479	0.276	
2.910	-0.074	0.271	
2.915	-0.002	0.234	
2.920	0.437	0.189	
2.925	-0.009	0.172	
2.930	-0.126	0.145	
2.935	0.343	0.109	
2.940	0.240	0.108	
2.945	-0.113	0.120	
2.950	0.217	0.115	
2.955	0.365	0.123	
2.960	-0.115	0.142	
2.965	-0.051	0.129	
2.970	0.278	0.102	
2.975	-0.118	0.088	
2.980	-0.196	0.057	
2.985	0.195	0.017	
2.990	-0.002	0.003	
2.995	-0.246	-0.007	
3.000	-0.011	-0.034	
3.005	0.127	-0.047	
3.010	-0.254	-0.046	
3.015	-0.181	-0.063	
3.020	0.165	-0.080	
3.025	-0.150	-0.074	
3.030	-0.162	-0.071	
3.035	0.350	-0.062	
3.040	0.305	-0.008	
3.045	-0.005	0.065	
3.050	0.418	0.121	
3.055	0.548	0.190	
3.060	0.003	0.259	
3.065	0.133	0.277	
3.070	0.609	0.275	
3.075	0.232	0.296	
3.080	0.068	0.305	
3.085	0.522	0.294	
3.090	0.272	0.298	
3.095	-0.159	0.287	
3.100	0.006	0.227	
3.105	0.114	0.154	
3.110	-0.272	0.088	
3.115	-0.200	0.010	
3.120	0.082	-0.057	
3.125	-0.242	-0.093	
3.130	-0.320	-0.126	
3.135	0.001	-0.160	
3.140	-0.074	-0.165	
3.145	-0.292	-0.157	
3.150	-0.075	-0.158	
3.155	-0.031	-0.151	
3.160	-0.352	-0.143	
3.165	-0.268	-0.158	
3.170	-0.022	-0.179	
3.175	-0.263	-0.182	
3.180	-0.346	-0.191	
3.185	-0.032	-0.206	
3.190	-0.122	-0.200	
3.195	-0.353	-0.189	
3.200	-0.130	-0.193	
3.205	-0.042	-0.190	
3.210	-0.324	-0.178	
3.215	-0.258	-0.183	
3.220	-0.077	-0.194	
3.225	-0.310	-0.197	
3.230	-0.371	-0.211	
3.235	-0.127	-0.234	
3.240	-0.213	-0.241	
3.245	-0.388	-0.243	
3.250	-0.177	-0.253	
3.255	-0.100	-0.250	
3.260	-0.349	-0.236	
3.265	-0.248	-0.234	
3.270	-0.013	-0.229	
3.275	-0.252	-0.209	
3.280	-0.303	-0.198	
3.285	0.003	-0.196	
3.290	-0.072	-0.175	
3.295	-0.269	-0.152	
3.300	-0.019	-0.142	
3.305	0.189	-0.116	
3.310	-0.161	-0.072	
3.315	-0.042	-0.046	
3.320	0.421	-0.016	
3.325	0.027	0.040	
3.330	-0.068	0.079	
3.335	0.478	0.100	
3.340	0.365	0.150	
3.345	-0.058	0.200	
3.350	0.314	0.214	
3.355	0.466	0.229	
3.360	-0.113	0.246	
3.365	-0.075	0.217	
3.370	0.301	0.164	
3.375	-0.095	0.128	
3.380	-0.203	0.082	
3.385	0.212	0.031	
3.390	0.099	0.015	
3.395	-0.207	0.014	
3.400	0.030	-0.003	
3.405	0.162	-0.009	
3.410	-0.287	-0.008	
3.415	-0.236	-0.036	
3.420	0.091	-0.074	
3.425	-0.249	-0.093	
3.430	-0.358	-0.120	
3.435	0.000	-0.156	
3.440	-0.035	-0.163	
3.445	-0.277	-0.152	
3.450	0.108	-0.141	
3.455	0.278	-0.100	
3.460	-0.260	-0.042	
3.465	-0.228	-0.028	
3.470	0.113	-0.043	
3.475	-0.239	-0.054	
3.480	-0.382	-0.084	
3.485	-0.043	-0.131	
3.490	-0.144	-0.159	
3.495	-0.478	-0.180	
3.500	-0.255	-0.220	
3.505	-0.101	-0.249	
3.510	-0.477	-0.261	
3.515	-0.422	-0.287	
3.520	-0.142	-0.314	
3.525	-0.405	-0.321	
3.530	-0.509	-0.332	
3.535	-0.126	-0.348	
3.540	-0.138	-0.333	
3.545	-0.307	-0.297	
3.550	0.377	-0.242	
3.555	1.086	-0.099	
3.560	0.599	0.134	
3.565	0.758	0.365	
3.570	1.340	0.570	
3.575	0.637	0.754	
3.580	0.209	0.835	
3.585	0.854	0.809	
3.590	0.655	0.766	
3.595	0.018	0.704	
3.600	0.440	0.596	
3.605	0.673	0.505	
3.610	-0.072	0.446	
3.615	0.009	0.360	
3.620	0.579	0.275	
3.625	0.010	0.237	
3.630	-0.177	0.194	
3.635	0.402	0.140	
3.640	0.229	0.127	
3.645	-0.231	0.126	
3.650	0.075	0.095	
3.655	0.359	0.075	
3.660	-0.228	0.077	
3.665	-0.162	0.052	
3.670	0.305	0.019	
3.675	-0.176	0.012	
3.680	-0.329	-0.011	
3.685	0.085	-0.055	
3.690	-0.042	-0.076	
3.695	-0.378	-0.089	
3.700	-0.086	-0.120	
3.705	0.192	-0.130	
3.710	-0.303	-0.111	
3.715	-0.217	-0.110	
3.720	0.270	-0.111	
3.725	-0.147	-0.083	
3.730	-0.272	-0.067	
3.735	0.264	-0.067	
3.740	0.137	-0.036	
3.745	-0.260	-0.002	
3.750	0.072	0.001	
3.755	0.342	0.013	
3.760	-0.231	0.040	
3.765	-0.150	0.034	
3.770	0.372	0.017	
3.775	-0.119	0.028	
3.780	-0.263	0.022	
3.785	0.249	-0.003	
3.790	0.081	-0.001	
3.795	-0.277	0.007	
3.800	0.056	-0.010	
3.805	0.359	-0.007	
3.810	-0.220	0.021	
3.815	-0.118	0.022	
3.820	0.449	0.018	
3.825	-0.072	0.045	
3.830	-0.231	0.054	
3.835	0.276	0.036	
3.840	0.110	0.041	
3.845	-0.257	0.046	
3.850	0.151	0.029	
3.855	0.512	0.041	
3.860	-0.100	0.089	
3.865	-0.035	0.109	
3.870	0.394	0.109	
3.875	-0.144	0.117	
3.880	-0.295	0.090	
3.885	0.084	0.031	
3.890	-0.072	-0.013	
3.895	-0.327	-0.051	
3.900	0.006	-0.093	
3.905	0.264	-0.099	
3.910	-0.236	-0.070	
3.915	-0.130	-0.058	
3.920	0.333	-0.049	
3.925	-0.145	-0.018	
3.930	-0.239	-0.008	
3.935	0.264	-0.018	
3.940	0.099	-0.002	
3.945	-0.231	0.017	
3.950	0.160	0.014	
3.955	0.403	0.032	
3.960	-0.161	0.073	
3.965	-0.052	0.081	
3.970	0.476	0.079	
3.975	-0.019	0.105	
3.980	-0.135	0.112	
3.985	0.440	0.102	
3.990	0.223	0.123	
3.995	-0.190	0.142	
4.000	0.342	0.134	
4.005	0.942	0.172	
4.010	-0.190	0.253	
4.015	-0.197	0.263	
4.020	0.822	0.230	
4.025	0.007	0.239	
4.030	-0.388	0.219	
4.035	0.475	0.156	
4.040	0.397	0.140	
4.045	-0.428	0.145	
4.050	-0.037	0.098	
4.055	0.592	0.061	
4.060	-0.375	0.067	
4.065	-0.349	0.035	
4.070	0.550	-0.012	
4.075	-0.136	-0.004	
4.080	-0.488	-0.009	
4.085	0.350	-0.045	
4.090	0.316	-0.030	
4.095	-0.463	0.007	
4.100	-0.020	-0.006	
4.105	0.699	-0.001	
4.110	-0.294	0.051	
4.115	-0.240	0.061	
4.120	0.820	0.057	
4.125	-0.023	0.108	
4.130	-0.361	0.132	
4.135	0.644	0.115	
4.140	0.588	0.155	
4.145	-0.307	0.216	
4.150	0.296	0.219	
4.155	1.013	0.239	
4.160	-0.153	0.305	
4.165	-0.075	0.311	
4.170	1.052	0.290	
4.175	0.204	0.330	
4.180	-0.248	0.345	
4.185	0.728	0.308	
4.190	0.655	0.320	
4.195	-0.263	0.348	
4.200	0.241	0.315	
4.205	0.880	0.291	
4.210	-0.153	0.311	
4.215	-0.132	0.284	
4.220	0.806	0.236	
4.225	0.041	0.239	
4.230	-0.313	0.223	
4.235	0.498	0.170	
4.240	0.423	0.163	
4.245	-0.350	0.176	
4.250	0.003	0.137	
4.255	0.594	0.104	
4.260	-0.197	0.114	
4.265	-0.122	0.102	
4.270	0.730	0.090	
4.275	0.227	0.140	
4.280	-0.139	0.187	
4.285	0.363	0.190	
4.290	0.146	0.190	
4.295	-0.243	0.174	
4.300	-0.005	0.118	
4.305	0.136	0.064	
4.310	-0.223	0.027	
4.315	-0.078	-0.014	
4.320	0.275	-0.036	
4.325	-0.144	-0.026	
4.330	-0.159	-0.024	
4.335	0.206	-0.030	
4.340	-0.016	-0.017	
4.345	-0.216	-0.009	
4.350	0.130	-0.018	
4.355	0.177	-0.009	
4.360	-0.208	0.010	
4.365	-0.075	0.003	
4.370	0.255	-0.006	
4.375	-0.133	0.005	
4.380	-0.156	0.001	
4.385	0.287	-0.008	
4.390	0.039	0.010	
4.395	-0.177	0.026	
4.400	0.171	0.022	
4.405	0.253	0.035	
4.410	-0.174	0.059	
4.415	-0.016	0.054	
4.420	0.372	0.050	
4.425	-0.063	0.069	
4.430	-0.135	0.071	
4.435	0.316	0.058	
4.440	0.042	0.066	
4.445	-0.179	0.068	
4.450	0.198	0.051	
4.455	0.270	0.056	
4.460	-0.179	0.074	
4.465	-0.025	0.064	
4.470	0.288	0.050	
4.475	-0.148	0.052	
4.480	-0.181	0.035	
4.485	0.249	0.008	
4.490	-0.029	0.007	
4.495	-0.222	0.003	
4.500	0.073	-0.017	
4.505	0.145	-0.021	
4.510	-0.226	-0.013	
4.515	-0.089	-0.025	
4.520	0.243	-0.033	
4.525	-0.173	-0.021	
4.530	-0.211	-0.026	
4.535	0.238	-0.040	
4.540	-0.006	-0.027	
4.545	-0.207	-0.015	
4.550	0.186	-0.017	
4.555	0.278	0.005	
4.560	-0.177	0.041	
4.565	-0.023	0.047	
4.570	0.383	0.048	
4.575	-0.127	0.069	
4.580	-0.179	0.064	
4.585	0.308	0.041	
4.590	0.009	0.043	
4.595	-0.232	0.041	
4.600	0.131	0.017	
4.605	0.174	0.011	
4.610	-0.260	0.017	
4.615	-0.116	-0.005	
4.620	0.224	-0.027	
4.625	-0.196	-0.027	
4.630	-0.222	-0.040	
4.635	0.212	-0.058	
4.640	-0.068	-0.051	
4.645	-0.298	-0.048	
4.650	0.029	-0.067	
4.655	0.084	-0.071	
4.660	-0.304	-0.065	
4.665	-0.159	-0.082	
4.670	0.159	-0.096	
4.675	-0.214	-0.088	
4.680	-0.187	-0.089	
4.685	0.467	-0.079	
4.690	0.215	-0.014	
4.695	-0.158	0.054	
4.700	0.165	0.080	
4.705	0.131	0.093	
4.710	-0.318	0.087	
4.715	-0.181	0.036	
4.720	0.188	-0.018	
4.725	-0.205	-0.042	
4.730	-0.240	-0.067	
4.735	0.243	-0.088	
4.740	-0.002	-0.070	
4.745	-0.260	-0.050	
4.750	0.113	-0.049	
4.755	0.218	-0.032	
4.760	-0.242	-0.003	
4.765	-0.066	-0.003	
4.770	0.334	-0.005	
4.775	-0.167	0.015	
4.780	-0.234	0.012	
4.785	0.203	-0.012	
4.790	-0.072	-0.017	
4.795	-0.303	-0.028	
4.800	0.023	-0.058	
4.805	0.085	-0.070	
4.810	-0.301	-0.068	
4.815	-0.129	-0.084	
4.820	0.266	-0.090	
4.825	-0.200	-0.067	
4.830	-0.234	-0.061	
4.835	0.272	-0.064	
4.840	0.003	-0.040	
4.845	-0.236	-0.019	
4.850	0.195	-0.017	
4.855	0.287	0.007	
4.860	-0.202	0.044	
4.865	-0.022	0.047	
4.870	0.426	0.049	
4.875	-0.124	0.073	
4.880	-0.173	0.072	
4.885	0.324	0.051	
4.890	0.010	0.054	
4.895	-0.255	0.049	
4.900	0.114	0.020	
4.905	0.201	0.010	
4.910	-0.249	0.016	
4.915	-0.074	-0.001	
4.920	0.331	-0.013	
4.925	-0.158	0.004	
4.930	-0.176	0.004	
4.935	0.408	-0.001	
4.940	0.122	0.031	
4.945	-0.150	0.065	
4.950	0.417	0.080	
4.955	0.562	0.131	
4.960	-0.028	0.201	
4.965	0.281	0.235	
4.970	0.753	0.268	
4.975	0.145	0.323	
4.980	0.087	0.343	
4.985	0.736	0.338	
4.990	0.414	0.364	
4.995	0.020	0.383	
5.000	0.603	0.370	
5.005	0.657	0.383	
5.010	-0.008	0.406	
5.015	0.261	0.384	
5.020	0.676	0.358	
5.025	0.033	0.354	
5.030	-0.017	0.321	
5.035	0.560	0.271	
5.040	0.221	0.258	
5.045	-0.098	0.245	
5.050	0.417	0.214	
5.055	0.518	0.217	
5.060	-0.080	0.242	
5.065	0.165	0.234	
5.070	0.582	0.225	
5.075	-0.034	0.239	
5.080	-0.103	0.220	
5.085	0.463	0.181	
5.090	0.139	0.173	
5.095	-0.112	0.166	
5.100	0.472	0.149	
5.105	0.583	0.179	
5.110	-0.071	0.233	
5.115	0.084	0.241	
5.120	0.331	0.220	
5.125	-0.202	0.194	
5.130	-0.255	0.131	
5.135	0.188	0.051	
5.140	-0.077	0.004	
5.145	-0.284	-0.031	
5.150	0.085	-0.068	
5.155	0.151	-0.072	
5.160	-0.265	-0.055	
5.165	-0.106	-0.059	
5.170	0.227	-0.062	
5.175	-0.205	-0.045	
5.180	-0.211	-0.046	
5.185	0.215	-0.058	
5.190	-0.060	-0.045	
5.195	-0.257	-0.038	
5.200	0.159	-0.047	
5.205	0.227	-0.029	
5.210	-0.208	0.004	
5.215	-0.002	0.010	
5.220	0.449	0.023	
5.225	-0.087	0.062	
5.230	-0.106	0.077	
5.235	0.460	0.078	
5.240	0.117	0.107	
5.245	-0.150	0.127	
5.250	0.345	0.120	
5.255	0.391	0.138	
5.260	-0.142	0.167	
5.265	0.078	0.158	
5.270	0.522	0.150	
5.275	-0.078	0.166	
5.280	-0.126	0.155	
5.285	0.395	0.123	
5.290	0.056	0.119	
5.295	-0.187	0.109	
5.300	0.256	0.082	
5.305	0.290	0.081	
5.310	-0.177	0.097	
5.315	0.029	0.085	
5.320	0.431	0.077	
5.325	-0.095	0.096	
5.330	-0.110	0.094	
5.335	0.392	0.079	
5.340	0.029	0.089	
5.345	-0.220	0.089	
5.350	0.162	0.060	
5.355	0.156	0.047	
5.360	-0.248	0.042	
5.365	-0.081	0.013	
5.370	0.269	-0.011	
5.375	-0.173	-0.007	
5.380	-0.197	-0.017	
5.385	0.263	-0.033	
5.390	-0.016	-0.020	
5.395	-0.176	-0.007	
5.400	0.321	-0.002	
5.405	0.347	0.038	
5.410	-0.159	0.091	
5.415	-0.006	0.101	
5.420	0.313	0.093	
5.425	-0.167	0.094	
5.430	-0.187	0.067	
5.435	0.197	0.025	
5.440	-0.095	0.006	
5.445	-0.275	-0.018	
5.450	0.032	-0.054	
5.455	0.047	-0.070	
5.460	-0.294	-0.072	
5.465	-0.145	-0.092	
5.470	0.104	-0.107	
5.475	-0.251	-0.103	
5.480	-0.251	-0.112	
5.485	0.091	-0.126	
5.490	-0.159	-0.121	
5.495	-0.300	-0.120	
5.500	0.049	-0.130	
5.505	0.130	-0.114	
5.510	-0.177	-0.080	
5.515	0.125	-0.052	
5.520	0.397	-0.008	
5.525	-0.155	0.051	
5.530	-0.171	0.067	
5.535	0.212	0.049	
5.540	-0.109	0.038	
5.545	-0.249	0.014	
5.550	0.169	-0.021	
5.555	0.174	-0.022	
5.560	-0.182	-0.003	
5.565	0.013	-0.001	
5.570	0.318	0.007	
5.575	-0.148	0.033	
5.580	-0.145	0.034	
5.585	0.292	0.021	
5.590	-0.023	0.030	
5.595	-0.162	0.033	
5.600	0.293	0.026	
5.605	0.259	0.049	
5.610	-0.165	0.081	
5.615	0.116	0.084	
5.620	0.450	0.094	
5.625	-0.071	0.125	
5.630	-0.008	0.131	
5.635	0.557	0.132	
5.640	0.174	0.167	
5.645	-0.026	0.194	
5.650	0.614	0.205	
5.655	0.592	0.256	
5.660	0.039	0.318	
5.665	0.431	0.341	
5.670	0.808	0.368	
5.675	0.159	0.415	
5.680	0.211	0.423	
5.685	0.842	0.415	
5.690	0.343	0.437	
5.695	-0.057	0.436	
5.700	0.542	0.390	
5.705	0.505	0.366	
5.710	-0.113	0.353	
5.715	0.168	0.302	
5.720	0.530	0.256	
5.725	-0.135	0.237	
5.730	-0.164	0.188	
5.735	0.305	0.122	
5.740	-0.113	0.082	
5.745	-0.301	0.037	
5.750	0.142	-0.018	
5.755	0.180	-0.034	
5.760	-0.254	-0.025	
5.765	0.032	-0.029	
5.770	0.437	-0.014	
5.775	-0.127	0.031	
5.780	-0.101	0.052	
5.785	0.525	0.061	
5.790	0.108	0.104	
5.795	-0.130	0.133	
5.800	0.478	0.138	
5.805	0.472	0.175	
5.810	-0.139	0.220	
5.815	0.166	0.218	
5.820	0.531	0.210	
5.825	-0.116	0.219	
5.830	-0.126	0.191	
5.835	0.452	0.146	
5.840	-0.025	0.131	
5.845	-0.278	0.106	
5.850	0.101	0.052	
5.855	0.075	0.015	
5.860	-0.332	-0.009	
5.865	-0.135	-0.053	
5.870	0.114	-0.087	
5.875	-0.338	-0.099	
5.880	-0.315	-0.127	
5.885	0.209	-0.153	
5.890	-0.098	-0.137	
5.895	-0.324	-0.118	
5.900	0.156	-0.114	
5.905	0.240	-0.081	
5.910	-0.249	-0.032	
5.915	0.041	-0.012	
5.920	0.568	0.019	
5.925	-0.113	0.079	
5.930	-0.165	0.103	
5.935	0.328	0.090	
5.940	-0.112	0.084	
5.945	-0.362	0.054	
5.950	0.035	-0.007	
5.955	0.046	-0.048	
5.960	-0.359	-0.070	
5.965	-0.121	-0.104	
5.970	0.247	-0.118	
5.975	-0.274	-0.099	
5.980	-0.271	-0.097	
5.985	0.233	-0.105	
5.990	-0.113	-0.086	
5.995	-0.338	-0.076	
6.000	0.130	-0.087	
6.005	0.131	-0.075	
6.010	-0.330	-0.052	
6.015	-0.090	-0.059	
6.020	0.290	-0.062	
6.025	-0.262	-0.042	
6.030	-0.252	-0.046	
6.035	0.321	-0.061	
6.040	-0.119	-0.044	
6.045	-0.339	-0.040	
6.050	0.133	-0.061	
6.055	0.143	-0.057	
6.060	-0.321	-0.040	
6.065	-0.072	-0.051	
6.070	0.337	-0.052	
6.075	-0.246	-0.027	
6.080	-0.226	-0.027	
6.085	0.278	-0.042	
6.090	-0.122	-0.032	
6.095	-0.332	-0.035	
6.100	0.163	-0.058	
6.105	0.143	-0.053	
6.110	-0.333	-0.035	
6.115	-0.078	-0.048	
6.120	0.290	-0.054	
6.125	-0.268	-0.037	
6.130	-0.254	-0.044	
6.135	0.282	-0.063	
6.140	-0.122	-0.051	
6.145	-0.342	-0.050	
6.150	0.110	-0.073	
6.155	0.148	-0.069	
6.160	-0.326	-0.051	
6.165	-0.090	-0.060	
6.170	0.328	-0.062	
6.175	-0.239	-0.036	
6.180	-0.205	-0.033	
6.185	0.423	-0.036	
6.190	-0.026	-0.002	
6.195	-0.262	0.020	
6.200	0.261	0.013	
6.205	0.241	0.031	
6.210	-0.263	0.056	
6.215	-0.042	0.043	
6.220	0.371	0.030	
6.225	-0.223	0.040	
6.230	-0.216	0.024	
6.235	0.279	-0.006	
6.240	-0.119	-0.009	
6.245	-0.310	-0.021	
6.250	0.146	-0.051	
6.255	0.059	-0.054	
6.260	-0.339	-0.049	
6.265	-0.104	-0.071	
6.270	0.172	-0.086	
6.275	-0.307	-0.081	
6.280	-0.291	-0.097	
6.285	0.142	-0.121	
6.290	-0.193	-0.120	
6.295	-0.359	-0.125	
6.300	0.044	-0.145	
6.305	0.021	-0.139	
6.310	-0.338	-0.122	
6.315	-0.048	-0.124	
6.320	0.469	-0.100	
6.325	-0.113	-0.034	
6.330	-0.057	0.013	
6.335	0.600	0.051	
6.340	-0.026	0.112	
6.345	-0.323	0.132	
6.350	0.062	0.089	
6.355	0.001	0.042	
6.360	-0.391	-0.003	
6.365	-0.156	-0.068	
6.370	0.188	-0.112	
6.375	-0.313	-0.117	
6.380	-0.291	-0.131	
6.385	0.229	-0.145	
6.390	-0.182	-0.126	
6.395	-0.367	-0.116	
6.400	0.104	-0.127	
6.405	0.076	-0.113	
6.410	-0.346	-0.090	
6.415	-0.095	-0.094	
6.420	0.253	-0.092	
6.425	-0.292	-0.069	
6.430	-0.251	-0.071	
6.435	0.278	-0.083	
6.440	-0.132	-0.066	
6.445	-0.326	-0.059	
6.450	0.156	-0.074	
6.455	0.124	-0.063	
6.460	-0.321	-0.042	
6.465	-0.061	-0.051	
6.470	0.347	-0.050	
6.475	-0.245	-0.023	
6.480	-0.239	-0.023	
6.485	0.255	-0.040	
6.490	-0.167	-0.036	
6.495	-0.384	-0.049	
6.500	-0.006	-0.090	
6.505	-0.048	-0.114	
6.510	-0.394	-0.127	
6.515	-0.152	-0.156	
6.520	0.178	-0.165	
6.525	-0.297	-0.144	
6.530	-0.231	-0.136	
6.535	0.372	-0.125	
6.540	-0.055	-0.076	
6.545	-0.251	-0.037	
6.550	0.318	-0.022	
6.555	0.264	0.019	
6.560	-0.179	0.067	
6.565	0.185	0.082	
6.570	0.481	0.105	
6.575	-0.167	0.143	
6.580	-0.095	0.137	
6.585	0.536	0.117	
6.590	0.013	0.132	
6.595	-0.194	0.131	
6.600	0.429	0.109	
6.605	0.340	0.125	
6.610	-0.185	0.152	
6.615	0.140	0.142	
6.620	0.496	0.139	
6.625	-0.147	0.157	
6.630	-0.113	0.141	
6.635	0.369	0.107	
6.640	-0.101	0.095	
6.645	-0.246	0.067	
6.650	0.214	0.024	
6.655	0.013	0.007	
6.660	-0.341	-0.007	
6.665	-0.103	-0.048	
6.670	0.111	-0.080	
6.675	-0.298	-0.089	
6.680	-0.213	-0.109	
6.685	0.181	-0.124	
6.690	-0.168	-0.109	
6.695	-0.297	-0.103	
6.700	0.120	-0.110	
6.705	-0.013	-0.097	
6.710	-0.321	-0.083	
6.715	-0.060	-0.093	
6.720	0.177	-0.094	
6.725	-0.265	-0.075	
6.730	-0.159	-0.076	
6.735	0.398	-0.071	
6.740	0.050	-0.023	
6.745	-0.077	0.024	
6.750	0.487	0.060	
6.755	0.212	0.118	
6.760	-0.255	0.155	
6.765	-0.013	0.130	
6.770	0.236	0.092	
6.775	-0.234	0.067	
6.780	-0.124	0.026	
6.785	0.423	-0.002	
6.790	-0.081	0.014	
6.795	-0.197	0.022	
6.800	0.354	0.017	
6.805	0.230	0.045	
6.810	-0.185	0.080	
6.815	0.180	0.084	
6.820	0.444	0.099	
6.825	-0.141	0.131	
6.830	-0.045	0.128	
6.835	0.501	0.115	
6.840	-0.025	0.131	
6.845	-0.184	0.127	
6.850	0.314	0.098	
6.855	0.124	0.092	
6.860	-0.262	0.086	
6.865	0.024	0.050	
6.870	0.256	0.025	
6.875	-0.243	0.021	
6.880	-0.165	-0.002	
6.885	0.282	-0.027	
6.890	-0.129	-0.022	
6.895	-0.236	-0.025	
6.900	0.270	-0.037	
6.905	0.096	-0.018	
6.910	-0.237	0.006	
6.915	0.065	0.001	
6.920	0.296	0.008	
6.925	-0.200	0.031	
6.930	-0.089	0.027	
6.935	0.385	0.021	
6.940	-0.061	0.042	
6.945	-0.153	0.050	
6.950	0.368	0.045	
6.955	0.180	0.069	
6.960	-0.190	0.093	
6.965	0.125	0.084	
6.970	0.278	0.080	
6.975	-0.229	0.084	
6.980	-0.129	0.056	
6.985	0.322	0.024	
6.990	-0.104	0.023	
6.995	-0.167	0.016	
7.000	0.421	0.009	
7.005	0.288	0.048	
7.010	-0.107	0.100	
7.015	0.380	0.128	
7.020	0.567	0.174	
7.025	-0.066	0.232	
7.030	0.117	0.243	
7.035	0.655	0.241	
7.040	0.076	0.265	
7.045	-0.084	0.262	
7.050	0.499	0.230	
7.055	0.264	0.227	
7.060	-0.165	0.223	
7.065	0.232	0.188	
7.070	0.437	0.169	
7.075	-0.162	0.173	
7.080	-0.049	0.145	
7.085	0.441	0.114	
7.090	-0.072	0.112	
7.095	-0.184	0.096	
7.100	0.328	0.065	
7.105	0.099	0.064	
7.110	-0.287	0.063	
7.115	0.024	0.030	
7.120	0.233	0.008	
7.125	-0.229	0.008	
7.130	-0.118	-0.010	
7.135	0.330	-0.023	
7.140	-0.141	-0.006	
7.145	-0.216	-0.005	
7.150	0.405	-0.011	
7.155	0.324	0.030	
7.160	-0.052	0.091	
7.165	0.528	0.139	
7.170	0.617	0.211	
7.175	-0.100	0.285	
7.180	-0.025	0.286	
7.185	0.388	0.245	
7.190	-0.121	0.209	
7.195	-0.202	0.150	
7.200	0.284	0.082	
7.205	0.044	0.053	
7.210	-0.232	0.035	
7.215	0.117	0.006	
7.220	0.287	0.003	
7.225	-0.194	0.025	
7.230	-0.034	0.024	
7.235	0.440	0.028	
7.240	-0.066	0.060	
7.245	-0.129	0.074	
7.250	0.458	0.073	
7.255	0.223	0.105	
7.260	-0.173	0.136	
7.265	0.235	0.131	
7.270	0.438	0.138	
7.275	-0.171	0.160	
7.280	-0.054	0.143	
7.285	0.449	0.116	
7.290	-0.061	0.117	
7.295	-0.185	0.103	
7.300	0.372	0.074	
7.305	0.152	0.079	
7.310	-0.197	0.089	
7.315	0.233	0.077	
7.320	0.437	0.090	
7.325	-0.161	0.123	
7.330	-0.031	0.120	
7.335	0.512	0.110	
7.340	-0.081	0.127	
7.345	-0.199	0.119	
7.350	0.432	0.091	
7.355	0.227	0.101	
7.360	-0.243	0.117	
7.365	0.110	0.097	
7.370	0.374	0.085	
7.375	-0.214	0.093	
7.380	-0.097	0.073	
7.385	0.478	0.053	
7.390	-0.103	0.068	
7.395	-0.249	0.064	
7.400	0.328	0.038	
7.405	0.104	0.041	
7.410	-0.281	0.047	
7.415	0.087	0.024	
7.420	0.360	0.020	
7.425	-0.232	0.041	
7.430	-0.142	0.032	
7.435	0.444	0.019	
7.440	-0.092	0.039	
7.445	-0.210	0.044	
7.450	0.449	0.035	
7.455	0.252	0.068	
7.460	-0.197	0.106	
7.465	0.281	0.112	
7.470	0.586	0.138	
7.475	-0.116	0.187	
7.480	0.001	0.193	
7.485	0.597	0.183	
7.490	-0.034	0.197	
7.495	-0.173	0.185	
7.500	0.441	0.147	
7.505	0.214	0.144	
7.510	-0.222	0.146	
7.515	0.163	0.117	
7.520	0.434	0.106	
7.525	-0.185	0.120	
7.530	-0.071	0.104	
7.535	0.527	0.087	
7.540	-0.055	0.105	
7.545	-0.205	0.104	
7.550	0.376	0.080	
7.555	0.152	0.086	
7.560	-0.228	0.094	
7.565	0.293	0.080	
7.570	0.644	0.105	
7.575	-0.034	0.169	
7.580	0.119	0.201	
7.585	0.594	0.217	
7.590	-0.097	0.240	
7.595	-0.280	0.213	
7.600	0.223	0.140	
7.605	-0.020	0.086	
7.610	-0.330	0.036	
7.615	0.053	-0.024	
7.620	0.327	-0.044	
7.625	-0.242	-0.025	
7.630	-0.115	-0.023	
7.635	0.427	-0.020	
7.640	-0.130	0.013	
7.645	-0.248	0.024	
7.650	0.308	0.010	
7.655	0.062	0.021	
7.660	-0.309	0.028	
7.665	0.003	0.001	
7.670	0.221	-0.016	
7.675	-0.307	-0.015	
7.680	-0.199	-0.039	
7.685	0.236	-0.066	
7.690	-0.184	-0.062	
7.695	-0.260	-0.067	
7.700	0.264	-0.077	
7.705	0.081	-0.052	
7.710	-0.213	-0.020	
7.715	0.241	-0.006	
7.720	0.443	0.036	
7.725	-0.132	0.095	
7.730	0.029	0.116	
7.735	0.524	0.126	
7.740	-0.048	0.155	
7.745	-0.144	0.154	
7.750	0.324	0.124	
7.755	0.036	0.112	
7.760	-0.236	0.092	
7.765	0.124	0.051	
7.770	0.264	0.035	
7.775	-0.205	0.040	
7.780	-0.072	0.026	
7.785	0.322	0.013	
7.790	-0.153	0.023	
7.795	-0.223	0.014	
7.800	0.206	-0.011	
7.805	-0.031	-0.014	
7.810	-0.251	-0.018	
7.815	0.096	-0.036	
7.820	0.137	-0.035	
7.825	-0.284	-0.024	
7.830	-0.153	-0.041	
7.835	0.185	-0.061	
7.840	-0.239	-0.060	
7.845	-0.281	-0.075	
7.850	0.068	-0.103	
7.855	-0.130	-0.110	
7.860	-0.323	-0.117	
7.865	-0.023	-0.136	
7.870	0.053	-0.134	
7.875	-0.318	-0.120	
7.880	-0.188	-0.126	
7.885	0.090	-0.134	
7.890	-0.284	-0.126	
7.895	-0.358	-0.138	
7.900	0.009	-0.164	
7.905	-0.148	-0.169	
7.910	-0.356	-0.170	
7.915	-0.058	-0.182	
7.920	0.053	-0.173	
7.925	-0.318	-0.149	
7.930	-0.170	-0.145	
7.935	0.175	-0.138	
7.940	-0.200	-0.110	
7.945	-0.229	-0.097	
7.950	0.229	-0.093	
7.955	-0.042	-0.065	
7.960	-0.278	-0.045	
7.965	0.076	-0.051	
7.970	0.272	-0.038	
7.975	-0.158	-0.003	
7.980	0.041	0.014	
7.985	0.457	0.038	
7.990	-0.124	0.081	
7.995	-0.258	0.085	
8.000	0.044	0.043	
8.005	-0.181	-0.001	
8.010	-0.411	-0.056	
8.015	-0.150	-0.126	
8.020	-0.077	-0.174	
8.025	-0.370	-0.196	
8.030	-0.207	-0.218	
8.035	0.119	-0.219	
8.040	-0.220	-0.188	
8.045	-0.236	-0.164	
8.050	0.266	-0.141	
8.055	0.053	-0.088	
8.060	-0.182	-0.037	
8.065	0.279	-0.006	
8.070	0.385	0.045	
8.075	-0.115	0.105	
8.080	0.152	0.129	
8.085	0.690	0.158	
8.090	0.177	0.222	
8.095	0.168	0.268	
8.100	0.851	0.304	
8.105	0.606	0.380	
8.110	0.174	0.451	
8.115	0.641	0.476	
8.120	0.733	0.501	
8.125	0.072	0.522	
8.130	0.290	0.489	
8.135	0.699	0.446	
8.140	0.137	0.426	
8.145	0.085	0.387	
8.150	0.756	0.345	
8.155	0.521	0.359	
8.160	0.149	0.389	
8.165	0.768	0.405	
8.170	0.886	0.457	
8.175	0.249	0.527	
8.180	0.586	0.555	
8.185	0.947	0.576	
8.190	-0.090	0.590	
8.195	-0.419	0.504	
8.200	-0.234	0.315	
8.205	-0.538	0.098	
8.210	-0.865	-0.127	
8.215	-0.561	-0.345	
8.220	-0.465	-0.501	
8.225	-0.836	-0.593	
8.230	-0.706	-0.660	
8.235	-0.465	-0.696	
8.240	-0.796	-0.698	
8.245	-0.894	-0.706	
8.250	-0.636	-0.728	
8.255	-0.798	-0.742	
8.260	-0.993	-0.760	
8.265	-0.779	-0.793	
8.270	-0.766	-0.816	
8.275	-0.993	-0.829	
8.280	-0.902	-0.851	
8.285	-0.743	-0.868	
8.290	-0.966	-0.871	
8.295	-0.961	-0.879	
8.300	-0.718	-0.888	
8.305	-0.813	-0.876	
8.310	-0.886	-0.858	
8.315	-0.607	-0.838	
8.320	-0.541	-0.795	
8.325	-0.682	-0.737	
8.330	-0.474	-0.682	
8.335	-0.266	-0.616	
8.340	-0.419	-0.536	
8.345	-0.361	-0.465	
8.350	-0.097	-0.402	
8.355	-0.207	-0.331	
8.360	-0.298	-0.273	
8.365	0.036	-0.229	
8.370	0.181	-0.167	
8.375	-0.022	-0.089	
8.380	0.386	-0.009	
8.385	0.790	0.102	
8.390	0.421	0.249	
8.395	0.438	0.370	
8.400	0.820	0.459	
8.405	0.551	0.540	
8.410	0.343	0.584	
8.415	0.829	0.594	
8.420	0.906	0.623	
8.425	0.545	0.669	
8.430	0.881	0.701	
8.435	1.146	0.747	
8.440	0.728	0.812	
8.445	0.797	0.850	
8.450	1.228	0.876	
8.455	0.953	0.921	
8.460	0.709	0.951	
8.465	1.124	0.951	
8.470	1.110	0.963	
8.475	0.713	0.979	
8.480	0.947	0.966	
8.485	1.162	0.956	
8.490	0.731	0.959	
8.495	0.753	0.939	
8.500	1.179	0.914	
8.505	0.857	0.916	
8.510	0.596	0.909	
8.515	1.048	0.880	
8.520	1.034	0.876	
8.525	0.615	0.884	
8.530	0.904	0.871	
8.535	1.147	0.869	
8.540	0.681	0.886	
8.545	0.667	0.878	
8.550	1.074	0.854	
8.555	0.731	0.849	
8.560	0.496	0.829	
8.565	0.874	0.786	
8.570	0.774	0.759	
8.575	0.343	0.734	
8.580	0.623	0.682	
8.585	0.822	0.642	
8.590	0.354	0.624	
8.595	0.379	0.589	
8.600	0.765	0.549	
8.605	0.466	0.538	
8.610	0.247	0.523	
8.615	0.681	0.495	
8.620	0.629	0.493	
8.625	0.186	0.499	
8.630	0.486	0.479	
8.635	0.699	0.466	
8.640	0.203	0.470	
8.645	0.215	0.446	
8.650	0.638	0.411	
8.655	0.331	0.402	
8.660	0.140	0.390	
8.665	0.548	0.365	
8.670	0.505	0.366	
8.675	0.094	0.375	
8.680	0.376	0.360	
8.685	0.577	0.352	
8.690	0.099	0.358	
8.695	0.134	0.337	
8.700	0.515	0.305	
8.705	0.188	0.295	
8.710	-0.011	0.277	
8.715	0.382	0.242	
8.720	0.324	0.230	
8.725	-0.090	0.224	
8.730	0.117	0.193	
8.735	0.308	0.162	
8.740	-0.071	0.148	
8.745	-0.026	0.120	
8.750	0.348	0.095	
8.755	0.036	0.097	
8.760	-0.081	0.096	
8.765	0.302	0.086	
8.770	0.169	0.097	
8.775	-0.110	0.109	
8.780	0.160	0.100	
8.785	0.403	0.105	
8.790	-0.040	0.131	
8.795	-0.025	0.133	
8.800	0.250	0.117	
8.805	-0.072	0.106	
8.810	-0.197	0.077	
8.815	0.053	0.030	
8.820	-0.014	-0.004	
8.825	-0.228	-0.029	
8.830	-0.038	-0.060	
8.835	0.188	-0.069	
8.840	-0.126	-0.051	
8.845	-0.098	-0.040	
8.850	0.194	-0.034	
8.855	-0.089	-0.015	
8.860	-0.170	-0.010	
8.865	0.157	-0.018	
8.870	0.110	-0.007	
8.875	-0.152	0.010	
8.880	0.017	0.008	
8.885	0.142	0.007	
8.890	-0.138	0.013	
8.895	-0.089	0.003	
8.900	0.212	-0.007	
8.905	-0.031	0.003	
8.910	-0.135	0.008	
8.915	0.168	0.003	
8.920	0.094	0.014	
8.925	-0.158	0.026	
8.930	0.017	0.017	
8.935	0.209	0.014	
8.940	-0.141	0.023	
8.945	-0.100	0.016	
8.950	0.140	-0.000	
8.955	-0.078	-0.003	
8.960	-0.165	-0.013	
8.965	0.148	-0.027	
8.970	0.076	-0.019	
8.975	-0.141	-0.005	
8.980	0.073	-0.003	
8.985	0.292	0.012	
8.990	-0.054	0.045	
8.995	-0.008	0.061	
9.000	0.336	0.070	
9.005	0.001	0.092	
9.010	-0.115	0.096	
9.015	0.201	0.079	
9.020	0.131	0.076	
9.025	-0.162	0.074	
9.030	0.020	0.051	
9.035	0.195	0.034	
9.040	-0.142	0.032	
9.045	-0.127	0.015	
9.050	0.087	-0.011	
9.055	-0.112	-0.024	
9.060	-0.203	-0.042	
9.065	0.059	-0.064	
9.070	0.039	-0.065	
9.075	-0.167	-0.055	
9.080	0.006	-0.053	
9.085	0.169	-0.042	
9.090	-0.150	-0.020	
9.095	-0.122	-0.017	
9.100	0.122	-0.025	
9.105	-0.116	-0.024	
9.110	-0.210	-0.034	
9.115	0.030	-0.056	
9.120	-0.052	-0.066	
9.125	-0.243	-0.073	
9.130	-0.077	-0.091	
9.135	0.055	-0.099	
9.140	-0.187	-0.092	
9.145	-0.132	-0.092	
9.150	0.091	-0.092	
9.155	-0.126	-0.078	
9.160	-0.193	-0.073	
9.165	0.070	-0.078	
9.170	-0.005	-0.068	
9.175	-0.200	-0.057	
9.180	-0.017	-0.061	
9.185	0.159	-0.055	
9.190	-0.113	-0.033	
9.195	-0.023	-0.021	
9.200	0.313	-0.004	
9.205	-0.037	0.032	
9.210	-0.193	0.045	
9.215	0.013	0.025	
9.220	-0.048	0.000	
9.225	-0.229	-0.026	
9.230	-0.049	-0.060	
9.235	0.076	-0.077	
9.240	-0.177	-0.075	
9.245	-0.118	-0.078	
9.250	0.142	-0.078	
9.255	-0.087	-0.060	
9.260	-0.179	-0.050	
9.265	0.084	-0.052	
9.270	0.001	-0.044	
9.275	-0.182	-0.037	
9.280	0.026	-0.042	
9.285	0.178	-0.034	
9.290	-0.133	-0.013	
9.295	-0.118	-0.009	
9.300	0.145	-0.016	
9.305	-0.092	-0.013	
9.310	-0.158	-0.018	
9.315	0.171	-0.028	
9.320	0.070	-0.016	
9.325	-0.147	0.000	
9.330	0.056	0.001	
9.335	0.221	0.009	
9.340	-0.100	0.030	
9.345	-0.022	0.035	
9.350	0.333	0.040	
9.355	0.033	0.066	
9.360	-0.081	0.081	
9.365	0.258	0.080	
9.370	0.151	0.091	
9.375	-0.119	0.101	
9.380	0.078	0.086	
9.385	0.220	0.075	
9.390	-0.119	0.074	
9.395	-0.075	0.055	
9.400	0.189	0.032	
9.405	-0.077	0.026	
9.410	-0.168	0.011	
9.415	0.101	-0.012	
9.420	0.017	-0.019	
9.425	-0.193	-0.022	
9.430	-0.003	-0.036	
9.435	0.120	-0.040	
9.440	-0.170	-0.032	
9.445	-0.103	-0.037	
9.450	0.152	-0.042	
9.455	-0.086	-0.032	
9.460	-0.156	-0.029	
9.465	0.163	-0.033	
9.470	0.033	-0.020	
9.475	-0.168	-0.007	
9.480	0.042	-0.011	
9.485	0.203	-0.006	
9.490	-0.122	0.013	
9.495	-0.068	0.015	
9.500	0.185	0.010	
9.505	-0.086	0.015	
9.510	-0.156	0.009	
9.515	0.124	-0.009	
9.520	0.003	-0.012	
9.525	-0.196	-0.014	
9.530	-0.022	-0.031	
9.535	0.041	-0.043	
9.540	-0.222	-0.049	
9.545	-0.162	-0.068	
9.550	0.035	-0.089	
9.555	-0.182	-0.095	
9.560	-0.216	-0.106	
9.565	0.046	-0.118	
9.570	-0.063	-0.111	
9.575	-0.237	-0.101	
9.580	-0.072	-0.106	
9.585	0.010	-0.106	
9.590	-0.242	-0.100	
9.595	-0.141	-0.107	
9.600	0.185	-0.106	
9.605	-0.032	-0.077	
9.610	-0.011	-0.044	
9.615	0.409	-0.003	
9.620	0.152	0.062	
9.625	-0.179	0.107	
9.630	-0.003	0.100	
9.635	0.000	0.069	
9.640	-0.265	0.029	
9.645	-0.164	-0.028	
9.650	0.111	-0.073	
9.655	-0.164	-0.087	
9.660	-0.240	-0.098	
9.665	0.061	-0.113	
9.670	-0.064	-0.108	
9.675	-0.277	-0.101	
9.680	-0.080	-0.111	
9.685	0.007	-0.116	
9.690	-0.271	-0.112	
9.695	-0.181	-0.122	
9.700	0.070	-0.131	
9.705	-0.177	-0.121	
9.710	-0.257	-0.119	
9.715	0.036	-0.126	
9.720	-0.064	-0.118	
9.725	-0.249	-0.108	
9.730	-0.035	-0.111	
9.735	0.065	-0.103	
9.740	-0.207	-0.086	
9.745	-0.100	-0.082	
9.750	0.206	-0.074	
9.755	-0.093	-0.047	
9.760	-0.150	-0.030	
9.765	0.208	-0.025	
9.770	0.052	-0.004	
9.775	-0.162	0.015	
9.780	0.093	0.013	
9.785	0.221	0.021	
9.790	-0.158	0.038	
9.795	-0.049	0.033	
9.800	0.288	0.026	
9.805	-0.064	0.039	
9.810	-0.112	0.041	
9.815	0.285	0.034	
9.820	0.084	0.049	
9.825	-0.168	0.061	
9.830	0.085	0.048	
9.835	0.215	0.042	
9.840	-0.142	0.049	
9.845	-0.035	0.039	
9.850	0.247	0.028	
9.855	-0.068	0.035	
9.860	-0.107	0.033	
9.865	0.270	0.025	
9.870	0.104	0.041	
9.875	-0.133	0.058	
9.880	0.146	0.054	
9.885	0.264	0.062	
9.890	-0.116	0.080	
9.895	-0.011	0.075	
9.900	0.316	0.067	
9.905	-0.025	0.078	
9.910	-0.083	0.078	
9.915	0.269	0.067	
9.920	0.072	0.073	
9.925	-0.141	0.076	
9.930	0.104	0.058	
9.935	0.217	0.051	
9.940	-0.156	0.056	
9.945	-0.081	0.040	
9.950	0.183	0.019	
9.955	-0.133	0.012	
9.960	-0.188	-0.007	
9.965	0.125	-0.032	
9.970	-0.019	-0.037	
9.975	-0.213	-0.038	
9.980	-0.006	-0.052	
9.985	0.097	-0.056	
9.990	-0.190	-0.047	
9.995	-0.068	-0.050	
10.000	0.211	-0.048	
10.005	-0.101	-0.026	
10.010	-0.155	-0.017	
10.015	0.172	-0.021	
10.020	0.062	-0.007	
10.025	-0.089	0.011	
10.030	0.366	0.029	
10.035	0.530	0.087	
10.040	0.013	0.166	
10.045	0.047	0.202	
10.050	0.290	0.201	
10.055	-0.090	0.188	
10.060	-0.158	0.145	
10.065	0.198	0.087	
10.070	0.061	0.057	
10.075	-0.153	0.039	
10.080	0.148	0.018	
10.085	0.252	0.023	
10.090	-0.121	0.046	
10.095	-0.075	0.045	
10.100	0.266	0.037	
10.105	-0.058	0.044	
10.110	-0.110	0.041	
10.115	0.293	0.033	
10.120	0.168	0.052	
10.125	-0.122	0.076	
10.130	0.203	0.079	
10.135	0.333	0.094	
10.140	-0.084	0.121	
10.145	0.030	0.120	
10.150	0.398	0.115	
10.155	0.032	0.131	
10.160	-0.048	0.134	
10.165	0.388	0.125	
10.170	0.220	0.142	
10.175	-0.087	0.158	
10.180	0.266	0.151	
10.185	0.392	0.158	
10.190	-0.034	0.180	
10.195	0.107	0.177	
10.200	0.473	0.173	
10.205	0.059	0.190	
10.210	-0.040	0.189	
10.215	0.421	0.172	
10.220	0.263	0.181	
10.225	-0.081	0.192	
10.230	0.206	0.176	
10.235	0.318	0.166	
10.240	-0.098	0.164	
10.245	0.010	0.139	
10.250	0.356	0.114	
10.255	-0.032	0.113	
10.260	-0.101	0.100	
10.265	0.293	0.078	
10.270	0.091	0.079	
10.275	-0.167	0.080	
10.280	0.096	0.058	
10.285	0.230	0.049	
10.290	-0.129	0.055	
10.295	-0.055	0.044	
10.300	0.255	0.031	
10.305	-0.061	0.037	
10.310	-0.116	0.034	
10.315	0.253	0.024	
10.320	0.108	0.038	
10.325	-0.119	0.054	
10.330	0.151	0.053	
10.335	0.206	0.060	
10.340	-0.153	0.072	
10.345	-0.052	0.057	
10.350	0.201	0.037	
10.355	-0.129	0.030	
10.360	-0.182	0.011	
10.365	0.081	-0.020	
10.370	-0.061	-0.035	
10.375	-0.245	-0.049	
10.380	-0.014	-0.073	
10.385	0.035	-0.083	
10.390	-0.229	-0.080	
10.395	-0.122	-0.089	
10.400	0.111	-0.094	
10.405	-0.142	-0.081	
10.410	-0.196	-0.077	
10.415	0.067	-0.082	
10.420	-0.078	-0.076	
10.425	-0.229	-0.074	
10.430	0.024	-0.083	
10.435	0.180	-0.072	
10.440	-0.081	-0.039	
10.445	0.136	-0.009	
10.450	0.418	0.036	
10.455	-0.037	0.094	
10.460	-0.136	0.115	
10.465	0.093	0.094	
10.470	-0.115	0.064	
10.475	-0.252	0.019	
10.480	-0.025	-0.036	
10.485	0.056	-0.068	
10.490	-0.202	-0.077	
10.495	-0.086	-0.086	
10.500	0.157	-0.085	
10.505	-0.142	-0.065	
10.510	-0.161	-0.056	
10.515	0.163	-0.056	
10.520	-0.035	-0.039	
10.525	-0.181	-0.028	
10.530	0.070	-0.032	
10.535	0.127	-0.024	
10.540	-0.170	-0.009	
10.545	-0.061	-0.012	
10.550	0.169	-0.018	
10.555	-0.138	-0.010	
10.560	-0.165	-0.017	
10.565	0.085	-0.035	
10.570	-0.058	-0.040	
10.575	-0.193	-0.045	
10.580	0.030	-0.059	
10.585	0.070	-0.057	
10.590	-0.190	-0.047	
10.595	-0.097	-0.052	
10.600	0.090	-0.058	
10.605	-0.161	-0.054	
10.610	-0.173	-0.061	
10.615	0.085	-0.072	
10.620	-0.061	-0.068	
10.625	-0.193	-0.063	
10.630	0.056	-0.068	
10.635	0.114	-0.056	
10.640	-0.159	-0.034	
10.645	-0.054	-0.029	
10.650	0.201	-0.024	
10.655	-0.101	-0.006	
10.660	-0.118	-0.001	
10.665	0.194	-0.005	
10.670	0.003	0.006	
10.675	-0.144	0.013	
10.680	0.084	0.005	
10.685	0.143	0.008	
10.690	-0.132	0.019	
10.695	-0.009	0.015	
10.700	0.253	0.015	
10.705	-0.042	0.033	
10.710	-0.064	0.041	
10.715	0.295	0.043	
10.720	0.047	0.062	
10.725	-0.095	0.074	
10.730	0.198	0.069	
10.735	0.220	0.077	
10.740	-0.083	0.093	
10.745	0.042	0.088	
10.750	0.282	0.082	
10.755	-0.045	0.090	
10.760	-0.074	0.083	
10.765	0.180	0.064	
10.770	-0.003	0.055	
10.775	-0.136	0.043	
10.780	0.049	0.018	
10.785	0.046	0.003	
10.790	-0.159	-0.006	
10.795	-0.075	-0.025	
10.800	0.082	-0.041	
10.805	-0.127	-0.042	
10.810	-0.136	-0.050	
10.815	0.117	-0.057	
10.820	-0.028	-0.047	
10.825	-0.155	-0.038	
10.830	0.035	-0.040	
10.835	0.047	-0.036	
10.840	-0.155	-0.028	
10.845	0.000	-0.031	
10.850	0.292	-0.021	
10.855	0.050	0.017	
10.860	0.013	0.052	
10.865	0.241	0.074	
10.870	-0.045	0.092	
10.875	-0.220	0.080	
10.880	-0.020	0.037	
10.885	0.015	-0.003	
10.890	-0.196	-0.030	
10.895	-0.063	-0.059	
10.900	0.183	-0.068	
10.905	-0.106	-0.051	
10.910	-0.106	-0.039	
10.915	0.230	-0.030	
10.920	0.027	-0.003	
10.925	-0.129	0.019	
10.930	0.156	0.022	
10.935	0.191	0.037	
10.940	-0.129	0.056	
10.945	0.003	0.053	
10.950	0.252	0.047	
10.955	-0.068	0.056	
10.960	-0.072	0.052	
10.965	0.244	0.042	
10.970	0.026	0.050	
10.975	-0.132	0.052	
10.980	0.149	0.039	
10.985	0.204	0.043	
10.990	-0.124	0.057	
10.995	0.027	0.053	
11.000	0.261	0.050	
11.005	-0.071	0.061	
11.010	-0.077	0.057	
11.015	0.284	0.048	
11.020	0.065	0.060	
11.025	-0.115	0.069	
11.030	0.191	0.062	
11.035	0.212	0.069	
11.040	-0.124	0.082	
11.045	0.003	0.072	
11.050	0.256	0.060	
11.055	-0.069	0.064	
11.060	-0.098	0.055	
11.065	0.195	0.037	
11.070	-0.014	0.034	
11.075	-0.158	0.027	
11.080	0.107	0.008	
11.085	0.143	0.007	
11.090	-0.158	0.015	
11.095	-0.063	0.006	
11.100	0.180	-0.004	
11.105	-0.127	-0.001	
11.110	-0.107	-0.007	
11.115	0.255	-0.013	
11.120	0.038	0.007	
11.125	-0.116	0.025	
11.130	0.240	0.032	
11.135	0.304	0.060	
11.140	-0.071	0.098	
11.145	0.090	0.111	
11.150	0.353	0.118	
11.155	-0.025	0.135	
11.160	-0.032	0.131	
11.165	0.298	0.115	
11.170	0.027	0.113	
11.175	-0.144	0.100	
11.180	0.137	0.070	
11.185	0.131	0.054	
11.190	-0.182	0.047	
11.195	-0.066	0.020	
11.200	0.157	-0.003	
11.205	-0.156	-0.010	
11.210	-0.164	-0.027	
11.215	0.130	-0.046	
11.220	-0.066	-0.046	
11.225	-0.222	-0.047	
11.230	-0.008	-0.063	
11.235	-0.017	-0.071	
11.240	-0.262	-0.076	
11.245	-0.122	-0.095	
11.250	0.097	-0.106	
11.255	-0.144	-0.095	
11.260	-0.092	-0.085	
11.265	0.267	-0.067	
11.270	-0.025	-0.027	
11.275	-0.217	-0.002	
11.280	-0.025	-0.012	
11.285	-0.043	-0.029	
11.290	-0.292	-0.050	
11.295	-0.152	-0.088	
11.300	0.061	-0.114	
11.305	-0.182	-0.116	
11.310	-0.185	-0.118	
11.315	0.081	-0.119	
11.320	-0.092	-0.103	
11.325	-0.239	-0.092	
11.330	-0.014	-0.096	
11.335	0.013	-0.092	
11.340	-0.232	-0.084	
11.345	-0.110	-0.090	
11.350	0.076	-0.094	
11.355	-0.211	-0.086	
11.360	-0.211	-0.092	
11.365	0.047	-0.105	
11.370	-0.124	-0.103	
11.375	-0.245	-0.104	
11.380	0.000	-0.113	
11.385	0.015	-0.108	
11.390	-0.225	-0.094	
11.395	-0.077	-0.094	
11.400	0.127	-0.088	
11.405	-0.173	-0.068	
11.410	-0.158	-0.064	
11.415	0.157	-0.065	
11.420	-0.057	-0.049	
11.425	-0.199	-0.039	
11.430	0.097	-0.044	
11.435	0.046	-0.036	
11.440	-0.220	-0.027	
11.445	-0.083	-0.040	
11.450	0.133	-0.050	
11.455	-0.165	-0.045	
11.460	-0.150	-0.051	
11.465	0.183	-0.057	
11.470	-0.054	-0.042	
11.475	-0.185	-0.032	
11.480	0.104	-0.036	
11.485	0.104	-0.025	
11.490	-0.190	-0.010	
11.495	-0.045	-0.015	
11.500	0.168	-0.020	
11.505	-0.170	-0.013	
11.510	-0.161	-0.023	
11.515	0.168	-0.038	
11.520	-0.046	-0.033	
11.525	-0.174	-0.029	
11.530	0.120	-0.034	
11.535	0.124	-0.022	
11.540	-0.162	-0.002	
11.545	0.007	-0.001	
11.550	0.273	0.006	
11.555	-0.080	0.030	
11.560	-0.089	0.037	
11.565	0.292	0.036	
11.570	-0.017	0.050	
11.575	-0.168	0.052	
11.580	0.133	0.033	
11.585	0.116	0.028	
11.590	-0.200	0.027	
11.595	-0.040	0.007	
11.600	0.134	-0.011	
11.605	-0.185	-0.016	
11.610	-0.164	-0.034	
11.615	0.149	-0.053	
11.620	-0.093	-0.051	
11.625	-0.216	-0.052	
11.630	0.064	-0.064	
11.635	0.067	-0.059	
11.640	-0.210	-0.047	
11.645	-0.077	-0.051	
11.650	0.165	-0.054	
11.655	-0.130	-0.039	
11.660	-0.071	-0.032	
11.665	0.412	-0.017	
11.670	0.214	0.039	
11.675	-0.060	0.095	
11.680	0.203	0.119	
11.685	0.128	0.130	
11.690	-0.207	0.124	
11.695	-0.054	0.082	
11.700	0.151	0.039	
11.705	-0.165	0.014	
11.710	-0.141	-0.015	
11.715	0.215	-0.038	
11.720	-0.032	-0.030	
11.725	-0.158	-0.021	
11.730	0.116	-0.023	
11.735	0.134	-0.011	
11.740	-0.165	0.008	
11.745	0.024	0.007	
11.750	0.261	0.012	
11.755	-0.116	0.033	
11.760	-0.101	0.033	
11.765	0.272	0.025	
11.770	0.006	0.037	
11.775	-0.141	0.043	
11.780	0.223	0.035	
11.785	0.218	0.049	
11.790	-0.150	0.070	
11.795	0.053	0.067	
11.800	0.345	0.066	
11.805	-0.069	0.085	
11.810	-0.057	0.085	
11.815	0.363	0.078	
11.820	0.076	0.095	
11.825	-0.092	0.105	
11.830	0.235	0.096	
11.835	0.203	0.101	
11.840	-0.139	0.108	
11.845	0.033	0.090	
11.850	0.263	0.073	
11.855	-0.132	0.071	
11.860	-0.109	0.052	
11.865	0.273	0.029	
11.870	0.007	0.033	
11.875	-0.167	0.035	
11.880	0.162	0.021	
11.885	0.189	0.027	
11.890	-0.158	0.042	
11.895	0.033	0.038	
11.900	0.284	0.037	
11.905	-0.089	0.054	
11.910	-0.060	0.054	
11.915	0.388	0.053	
11.920	0.049	0.077	
11.925	-0.124	0.092	
11.930	0.270	0.085	
11.935	0.308	0.100	
11.940	-0.106	0.125	
11.945	0.134	0.124	
11.950	0.457	0.130	
11.955	0.007	0.157	
11.960	-0.008	0.163	
11.965	0.473	0.157	
11.970	0.198	0.178	
11.975	-0.058	0.193	
11.980	0.328	0.183	
11.985	0.290	0.186	
11.990	-0.122	0.189	
11.995	0.067	0.161	
12.000	0.342	0.134	
12.005	-0.106	0.125	
12.010	-0.118	0.099	
12.015	0.269	0.064	
12.020	-0.019	0.054	
12.025	-0.194	0.040	
12.030	0.120	0.013	
12.035	0.122	0.005	
12.040	-0.193	0.008	
12.045	-0.026	-0.005	
12.050	0.215	-0.012	
12.055	-0.167	-0.003	
12.060	-0.142	-0.009	
12.065	0.314	-0.017	
12.070	0.136	0.011	
12.075	-0.016	0.049	
12.080	0.458	0.085	
12.085	0.382	0.146	
12.090	-0.119	0.200	
12.095	-0.003	0.196	
12.100	0.192	0.161	
12.105	-0.176	0.123	
12.110	-0.156	0.068	
12.115	0.247	0.017	
12.120	-0.017	0.003	
12.125	-0.176	-0.002	
12.130	0.208	-0.012	
12.135	0.162	0.004	
12.140	-0.197	0.026	
12.145	-0.011	0.021	
12.150	0.295	0.018	
12.155	-0.126	0.034	
12.160	-0.106	0.033	
12.165	0.325	0.026	
12.170	0.033	0.044	
12.175	-0.142	0.056	
12.180	0.246	0.052	
12.185	0.252	0.068	
12.190	-0.142	0.091	
12.195	0.064	0.087	
12.200	0.386	0.086	
12.205	-0.057	0.106	
12.210	-0.061	0.106	
12.215	0.383	0.096	
12.220	0.082	0.109	
12.225	-0.090	0.117	
12.230	0.299	0.108	
12.235	0.287	0.121	
12.240	-0.107	0.140	
12.245	0.127	0.133	
12.250	0.389	0.129	
12.255	-0.055	0.143	
12.260	-0.046	0.134	
12.265	0.376	0.116	
12.270	0.062	0.120	
12.275	-0.100	0.119	
12.280	0.226	0.101	
12.285	0.215	0.099	
12.290	-0.161	0.103	
12.295	0.012	0.081	
12.300	0.249	0.061	
12.305	-0.158	0.056	
12.310	-0.130	0.034	
12.315	0.250	0.009	
12.320	-0.049	0.010	
12.325	-0.182	0.007	
12.330	0.174	-0.006	
12.335	0.165	0.003	
12.340	-0.168	0.023	
12.345	0.041	0.022	
12.350	0.337	0.029	
12.355	-0.121	0.055	
12.360	-0.110	0.057	
12.365	0.343	0.047	
12.370	0.036	0.062	
12.375	-0.132	0.071	
12.380	0.227	0.062	
12.385	0.224	0.072	
12.390	-0.150	0.088	
12.395	0.044	0.078	
12.400	0.295	0.069	
12.405	-0.130	0.075	
12.410	-0.150	0.059	
12.415	0.204	0.030	
12.420	-0.054	0.019	
12.425	-0.217	0.005	
12.430	0.114	-0.020	
12.435	0.085	-0.024	
12.440	-0.216	-0.019	
12.445	-0.032	-0.030	
12.450	0.215	-0.033	
12.455	-0.159	-0.017	
12.460	-0.136	-0.018	
12.465	0.211	-0.025	
12.470	-0.100	-0.015	
12.475	-0.219	-0.017	
12.480	0.165	-0.032	
12.485	0.253	-0.017	
12.490	-0.064	0.022	
12.495	0.290	0.056	
12.500	0.536	0.111	
12.505	-0.092	0.176	
12.510	-0.145	0.185	
12.515	0.152	0.145	
12.520	-0.113	0.100	
12.525	-0.236	0.046	
12.530	0.101	-0.012	
12.535	0.081	-0.036	
12.540	-0.228	-0.040	
12.545	-0.049	-0.054	
12.550	0.180	-0.057	
12.555	-0.184	-0.043	
12.560	-0.174	-0.044	
12.565	0.223	-0.051	
12.570	-0.063	-0.036	
12.575	-0.190	-0.026	
12.580	0.133	-0.030	
12.585	0.107	-0.019	
12.590	-0.208	-0.003	
12.595	-0.009	-0.010	
12.600	0.255	-0.010	
12.605	-0.135	0.009	
12.610	-0.115	0.010	
12.615	0.292	0.006	
12.620	-0.014	0.024	
12.625	-0.159	0.033	
12.630	0.233	0.027	
12.635	0.169	0.041	
12.640	-0.170	0.059	
12.645	0.070	0.052	
12.650	0.288	0.051	
12.655	-0.141	0.065	
12.660	-0.113	0.054	
12.665	0.279	0.035	
12.670	-0.020	0.039	
12.675	-0.173	0.037	
12.680	0.211	0.022	
12.685	0.157	0.029	
12.690	-0.173	0.043	
12.695	0.049	0.036	
12.700	0.295	0.036	
12.705	-0.132	0.053	
12.710	-0.103	0.048	
12.715	0.301	0.035	
12.720	-0.029	0.044	
12.725	-0.173	0.043	
12.730	0.183	0.026	
12.735	0.125	0.028	
12.740	-0.179	0.035	
12.745	0.052	0.024	
12.750	0.301	0.024	
12.755	-0.116	0.045	
12.760	-0.063	0.047	
12.765	0.374	0.045	
12.770	0.046	0.070	
12.775	-0.118	0.085	
12.780	0.340	0.084	
12.785	0.298	0.107	
12.790	-0.129	0.136	
12.795	0.122	0.133	
12.800	0.397	0.130	
12.805	-0.092	0.143	
12.810	-0.068	0.130	
12.815	0.348	0.105	
12.820	-0.028	0.101	
12.825	-0.171	0.086	
12.830	0.217	0.056	
12.835	0.160	0.050	
12.840	-0.203	0.053	
12.845	-0.011	0.033	
12.850	0.233	0.018	
12.855	-0.168	0.020	
12.860	-0.127	0.007	
12.865	0.273	-0.008	
12.870	-0.069	0.003	
12.875	-0.194	0.005	
12.880	0.148	-0.010	
12.885	0.081	-0.006	
12.890	-0.214	0.001	
12.895	0.012	-0.011	
12.900	0.334	-0.009	
12.905	-0.063	0.023	
12.910	0.062	0.047	
12.915	0.542	0.078	
12.920	0.113	0.137	
12.925	-0.141	0.169	
12.930	0.125	0.152	
12.935	0.026	0.122	
12.940	-0.245	0.081	
12.945	-0.068	0.022	
12.950	0.156	-0.022	
12.955	-0.185	-0.036	
12.960	-0.129	-0.053	
12.965	0.270	-0.059	
12.970	-0.046	-0.034	
12.975	-0.181	-0.016	
12.980	0.201	-0.014	
12.985	0.137	0.007	
12.990	-0.184	0.029	
12.995	0.018	0.025	
13.000	0.244	0.023	
13.005	-0.156	0.034	
13.010	-0.115	0.024	
13.015	0.299	0.011	
13.020	-0.026	0.024	
13.025	-0.162	0.030	
13.030	0.227	0.021	
13.035	0.166	0.034	
13.040	-0.161	0.053	
13.045	0.072	0.048	
13.050	0.313	0.051	
13.055	-0.124	0.069	
13.060	-0.081	0.065	
13.065	0.357	0.054	
13.070	0.001	0.068	
13.075	-0.167	0.071	
13.080	0.230	0.055	
13.085	0.171	0.058	
13.090	-0.155	0.068	
13.095	0.070	0.058	
13.100	0.308	0.055	
13.105	-0.121	0.070	
13.110	-0.092	0.063	
13.115	0.296	0.048	
13.120	-0.038	0.053	
13.125	-0.168	0.048	
13.130	0.209	0.029	
13.135	0.130	0.032	
13.140	-0.184	0.040	
13.145	0.013	0.027	
13.150	0.249	0.020	
13.155	-0.156	0.029	
13.160	-0.115	0.020	
13.165	0.281	0.007	
13.170	-0.005	0.020	
13.175	-0.168	0.027	
13.180	0.221	0.020	
13.185	0.145	0.032	
13.190	-0.158	0.049	
13.195	0.116	0.045	
13.200	0.353	0.055	
13.205	-0.110	0.082	
13.210	-0.078	0.083	
13.215	0.308	0.070	
13.220	-0.042	0.074	
13.225	-0.171	0.064	
13.230	0.185	0.039	
13.235	0.070	0.031	
13.240	-0.214	0.027	
13.245	-0.051	0.001	
13.250	0.117	-0.021	
13.255	-0.208	-0.029	
13.260	-0.167	-0.049	
13.265	0.151	-0.068	
13.270	-0.113	-0.064	
13.275	-0.214	-0.063	
13.280	0.125	-0.071	
13.285	0.036	-0.058	
13.290	-0.234	-0.043	
13.295	-0.014	-0.048	
13.300	0.194	-0.045	
13.305	-0.161	-0.025	
13.310	-0.078	-0.020	
13.315	0.359	-0.012	
13.320	0.101	0.028	
13.325	-0.020	0.068	
13.330	0.392	0.095	
13.335	0.198	0.136	
13.340	-0.187	0.159	
13.345	-0.002	0.132	
13.350	0.156	0.093	
13.355	-0.222	0.061	
13.360	-0.148	0.014	
13.365	0.240	-0.025	
13.370	-0.068	-0.027	
13.375	-0.164	-0.026	
13.380	0.221	-0.029	
13.385	0.175	-0.004	
13.390	-0.174	0.028	
13.395	0.072	0.033	
13.400	0.284	0.041	
13.405	-0.132	0.061	
13.410	-0.069	0.058	
13.415	0.353	0.049	
13.420	-0.002	0.065	
13.425	-0.107	0.072	
13.430	0.337	0.068	
13.435	0.258	0.091	
13.440	-0.112	0.120	
13.445	0.172	0.122	
13.450	0.417	0.130	
13.455	-0.054	0.154	
13.460	0.010	0.152	
13.465	0.434	0.142	
13.470	0.059	0.154	
13.475	-0.077	0.153	
13.480	0.331	0.135	
13.485	0.236	0.140	
13.490	-0.116	0.148	
13.495	0.188	0.133	
13.500	0.383	0.131	
13.505	-0.083	0.146	
13.510	0.012	0.137	
13.515	0.426	0.124	
13.520	0.042	0.137	
13.525	-0.078	0.138	
13.530	0.334	0.123	
13.535	0.215	0.130	
13.540	-0.135	0.139	
13.545	0.137	0.121	
13.550	0.314	0.111	
13.555	-0.112	0.116	
13.560	-0.046	0.099	
13.565	0.372	0.080	
13.570	0.026	0.089	
13.575	-0.116	0.092	
13.580	0.330	0.082	
13.585	0.227	0.097	
13.590	-0.129	0.117	
13.595	0.156	0.111	
13.600	0.392	0.114	
13.605	-0.051	0.136	
13.610	0.010	0.135	
13.615	0.434	0.129	
13.620	0.047	0.144	
13.625	-0.086	0.146	
13.630	0.307	0.128	
13.635	0.162	0.127	
13.640	-0.161	0.125	
13.645	0.097	0.098	
13.650	0.258	0.080	
13.655	-0.139	0.079	
13.660	-0.090	0.058	
13.665	0.252	0.034	
13.670	-0.069	0.032	
13.675	-0.158	0.023	
13.680	0.220	0.007	
13.685	0.108	0.015	
13.690	-0.170	0.029	
13.695	0.079	0.024	
13.700	0.264	0.028	
13.705	-0.147	0.046	
13.710	-0.072	0.042	
13.715	0.328	0.034	
13.720	0.021	0.052	
13.725	-0.075	0.064	
13.730	0.455	0.074	
13.735	0.371	0.120	
13.740	-0.116	0.171	
13.745	0.058	0.173	
13.750	0.192	0.151	
13.755	-0.200	0.124	
13.760	-0.147	0.071	
13.765	0.195	0.018	
13.770	-0.087	-0.004	
13.775	-0.168	-0.021	
13.780	0.195	-0.036	
13.785	0.084	-0.023	
13.790	-0.185	-0.004	
13.795	0.050	-0.005	
13.800	0.214	0.002	
13.805	-0.165	0.019	
13.810	-0.086	0.015	
13.815	0.319	0.009	
13.820	-0.037	0.028	
13.825	-0.118	0.038	
13.830	0.362	0.040	
13.835	0.253	0.074	
13.840	-0.072	0.113	
13.845	0.267	0.129	
13.850	0.437	0.154	
13.855	-0.057	0.188	
13.860	0.033	0.187	
13.865	0.429	0.172	
13.870	0.056	0.176	
13.875	-0.071	0.168	
13.880	0.359	0.145	
13.885	0.233	0.148	
13.890	-0.106	0.155	
13.895	0.180	0.139	
13.900	0.353	0.134	
13.905	-0.112	0.142	
13.910	-0.032	0.124	
13.915	0.337	0.100	
13.920	-0.034	0.098	
13.925	-0.142	0.085	
13.930	0.220	0.058	
13.935	0.088	0.052	
13.940	-0.170	0.050	
13.945	0.055	0.030	
13.950	0.209	0.022	
13.955	-0.159	0.029	
13.960	-0.077	0.018	
13.965	0.273	0.007	
13.970	-0.080	0.019	
13.975	-0.177	0.018	
13.980	0.178	0.003	
13.985	0.073	0.006	
13.990	-0.185	0.013	
13.995	0.038	0.002	
14.000	0.197	0.000	
14.005	-0.173	0.011	
14.010	-0.109	0.003	
14.015	0.214	-0.010	
14.020	-0.115	-0.005	
14.025	-0.208	-0.012	
14.030	0.114	-0.033	
14.035	-0.003	-0.036	
14.040	-0.258	-0.038	
14.045	-0.068	-0.059	
14.050	0.036	-0.075	
14.055	-0.275	-0.081	
14.060	-0.216	-0.103	
14.065	0.015	-0.127	
14.070	-0.219	-0.134	
14.075	-0.300	-0.146	
14.080	-0.043	-0.164	
14.085	-0.130	-0.167	
14.090	-0.333	-0.167	
14.095	-0.142	-0.179	
14.100	-0.031	-0.182	
14.105	-0.297	-0.173	
14.110	-0.240	-0.177	
14.115	-0.014	-0.182	
14.120	-0.226	-0.174	
14.125	-0.292	-0.173	
14.130	0.039	-0.176	
14.135	-0.002	-0.155	
14.140	-0.179	-0.123	
14.145	0.038	-0.099	
14.150	0.076	-0.070	
14.155	-0.269	-0.047	
14.160	-0.242	-0.059	
14.165	-0.035	-0.091	
14.170	-0.268	-0.116	
14.175	-0.301	-0.147	
14.180	-0.011	-0.176	
14.185	-0.092	-0.177	
14.190	-0.287	-0.167	
14.195	-0.064	-0.165	
14.200	0.055	-0.150	
14.205	-0.242	-0.124	
14.210	-0.153	-0.115	
14.215	0.107	-0.110	
14.220	-0.162	-0.092	
14.225	-0.216	-0.086	
14.230	0.105	-0.090	
14.235	-0.048	-0.077	
14.240	-0.239	-0.068	
14.245	-0.034	-0.076	
14.250	0.091	-0.076	
14.255	-0.234	-0.066	
14.260	-0.141	-0.073	
14.265	0.125	-0.081	
14.270	-0.153	-0.072	
14.275	-0.217	-0.072	
14.280	0.073	-0.083	
14.285	-0.068	-0.079	
14.290	-0.257	-0.078	
14.295	-0.057	-0.092	
14.300	0.026	-0.098	
14.305	-0.249	-0.095	
14.310	-0.135	-0.103	
14.315	0.136	-0.106	
14.320	-0.188	-0.091	
14.325	-0.243	-0.088	
14.330	0.073	-0.099	
14.335	-0.066	-0.093	
14.340	-0.252	-0.088	
14.345	-0.029	-0.096	
14.350	0.073	-0.094	
14.355	-0.237	-0.081	
14.360	-0.136	-0.084	
14.365	0.119	-0.089	
14.370	-0.155	-0.077	
14.375	-0.208	-0.075	
14.380	0.085	-0.083	
14.385	-0.054	-0.076	
14.390	-0.260	-0.071	
14.395	-0.031	-0.084	
14.400	0.085	-0.085	
14.405	-0.194	-0.073	
14.410	-0.074	-0.071	
14.415	0.211	-0.063	
14.420	-0.109	-0.036	
14.425	-0.147	-0.023	
14.430	0.247	-0.020	
14.435	0.062	0.004	
14.440	-0.190	0.024	
14.445	0.079	0.018	
14.450	0.195	0.019	
14.455	-0.179	0.030	
14.460	-0.106	0.017	
14.465	0.157	-0.003	
14.470	-0.159	-0.010	
14.475	-0.217	-0.029	
14.480	0.061	-0.058	
14.485	-0.092	-0.070	
14.490	-0.284	-0.082	
14.495	-0.061	-0.106	
14.500	0.007	-0.116	
14.505	-0.265	-0.115	
14.510	-0.147	-0.123	
14.515	0.084	-0.127	
14.520	-0.203	-0.114	
14.525	-0.242	-0.112	
14.530	0.073	-0.119	
14.535	-0.086	-0.109	
14.540	-0.242	-0.099	
14.545	0.075	-0.099	
14.550	0.261	-0.073	
14.555	-0.077	-0.023	
14.560	0.076	0.015	
14.565	0.301	0.048	
14.570	-0.141	0.080	
14.575	-0.232	0.071	
14.580	0.038	0.028	
14.585	-0.100	-0.011	
14.590	-0.277	-0.048	
14.595	-0.054	-0.090	
14.600	0.046	-0.110	
14.605	-0.252	-0.109	
14.610	-0.139	-0.116	
14.615	0.113	-0.118	
14.620	-0.181	-0.101	
14.625	-0.223	-0.096	
14.630	0.113	-0.099	
14.635	-0.052	-0.085	
14.640	-0.236	-0.073	
14.645	0.033	-0.076	
14.650	0.128	-0.065	
14.655	-0.214	-0.045	
14.660	-0.101	-0.045	
14.665	0.197	-0.047	
14.670	-0.135	-0.032	
14.675	-0.190	-0.031	
14.680	0.160	-0.041	
14.685	-0.009	-0.033	
14.690	-0.203	-0.025	
14.695	0.093	-0.032	
14.700	0.208	-0.021	
14.705	-0.158	0.005	
14.710	-0.049	0.009	
14.715	0.295	0.012	
14.720	-0.075	0.032	
14.725	-0.116	0.037	
14.730	0.276	0.032	
14.735	0.084	0.047	
14.740	-0.156	0.059	
14.745	0.145	0.050	
14.750	0.189	0.052	
14.755	-0.164	0.059	
14.760	-0.045	0.044	
14.765	0.244	0.028	
14.770	-0.092	0.031	
14.775	-0.162	0.022	
14.780	0.195	0.003	
14.785	0.026	0.005	
14.790	-0.182	0.008	
14.795	0.130	-0.001	
14.800	0.227	0.008	
14.805	-0.142	0.032	
14.810	-0.019	0.034	
14.815	0.314	0.035	
14.820	-0.061	0.054	
14.825	-0.092	0.058	
14.830	0.282	0.051	
14.835	0.091	0.064	
14.840	-0.113	0.075	
14.845	0.197	0.069	
14.850	0.290	0.080	
14.855	-0.113	0.101	
14.860	0.012	0.096	
14.865	0.345	0.088	
14.870	-0.052	0.098	
14.875	-0.086	0.091	
14.880	0.328	0.076	
14.885	0.096	0.086	
14.890	-0.138	0.092	
14.895	0.159	0.077	
14.900	0.195	0.073	
14.905	-0.164	0.075	
14.910	-0.034	0.055	
14.915	0.235	0.035	
14.920	-0.130	0.033	
14.925	-0.135	0.018	
14.930	0.185	-0.002	
14.935	-0.048	-0.003	
14.940	-0.185	-0.008	
14.945	0.039	-0.026	
14.950	0.108	-0.030	
14.955	-0.202	-0.024	
14.960	-0.066	-0.033	
14.965	0.263	-0.035	
14.970	-0.048	-0.010	
14.975	-0.002	0.011	
14.980	0.554	0.043	
14.985	0.372	0.119	
14.990	-0.048	0.192	
14.995	0.203	0.215	
15.000	0.154	0.210	
15.005	-0.208	0.183	
15.010	-0.098	0.119	
15.015	0.159	0.054	
15.020	-0.153	0.016	
15.025	-0.171	-0.021	
15.030	0.172	-0.050	
15.035	-0.045	-0.049	
15.040	-0.228	-0.046	
15.045	-0.005	-0.060	
15.050	0.046	-0.064	
15.055	-0.220	-0.061	
15.060	-0.097	-0.070	
15.065	0.171	-0.073	
15.070	-0.152	-0.057	
15.075	-0.168	-0.052	
15.080	0.175	-0.055	
15.085	-0.029	-0.039	
15.090	-0.193	-0.027	
15.095	0.084	-0.032	
15.100	0.140	-0.023	
15.105	-0.179	-0.006	
15.110	-0.072	-0.010	
15.115	0.198	-0.016	
15.120	-0.132	-0.007	
15.125	-0.152	-0.011	
15.130	0.177	-0.023	
15.135	-0.017	-0.016	
15.140	-0.188	-0.012	
15.145	0.107	-0.021	
15.150	0.168	-0.012	
15.155	-0.161	0.007	
15.160	-0.008	0.008	
15.165	0.266	0.011	
15.170	-0.087	0.030	
15.175	-0.104	0.034	
15.180	0.278	0.028	
15.185	0.042	0.043	
15.190	-0.167	0.052	
15.195	0.116	0.038	
15.200	0.162	0.035	
15.205	-0.187	0.039	
15.210	-0.084	0.020	
15.215	0.146	-0.003	
15.220	-0.171	-0.012	
15.225	-0.190	-0.032	
15.230	0.146	-0.054	
15.235	-0.051	-0.053	
15.240	-0.202	-0.050	
15.245	0.087	-0.056	
15.250	0.148	-0.043	
15.255	-0.162	-0.019	
15.260	0.001	-0.011	
15.265	0.314	0.002	
15.270	-0.074	0.033	
15.275	-0.084	0.047	
15.280	0.330	0.049	
15.285	0.124	0.073	
15.290	-0.087	0.094	
15.295	0.246	0.096	
15.300	0.319	0.113	
15.305	-0.100	0.136	
15.310	0.088	0.132	
15.315	0.331	0.125	
15.320	-0.066	0.130	
15.325	-0.080	0.114	
15.330	0.330	0.090	
15.335	0.087	0.092	
15.340	-0.115	0.094	
15.345	0.230	0.082	
15.350	0.269	0.089	
15.355	-0.103	0.107	
15.360	0.084	0.103	
15.365	0.345	0.101	
15.370	-0.043	0.115	
15.375	-0.084	0.109	
15.380	0.292	0.089	
15.385	0.027	0.087	
15.390	-0.138	0.080	
15.395	0.224	0.061	
15.400	0.354	0.070	
15.405	0.010	0.106	
15.410	0.350	0.137	
15.415	0.654	0.190	
15.420	0.136	0.264	
15.425	0.021	0.295	
15.430	0.343	0.280	
15.435	0.035	0.255	
15.440	-0.141	0.208	
15.445	0.186	0.144	
15.450	0.230	0.107	
15.455	-0.121	0.094	
15.460	0.059	0.072	
15.465	0.353	0.064	
15.470	-0.063	0.081	
15.475	-0.046	0.082	
15.480	0.394	0.079	
15.485	0.113	0.102	
15.490	-0.103	0.119	
15.495	0.272	0.113	
15.500	0.325	0.125	
15.505	-0.049	0.148	
15.510	0.174	0.150	
15.515	0.437	0.158	
15.520	-0.009	0.180	
15.525	-0.003	0.177	
15.530	0.446	0.163	
15.535	0.175	0.175	
15.540	-0.045	0.183	
15.545	0.318	0.172	
15.550	0.304	0.176	
15.555	-0.072	0.185	
15.560	0.142	0.169	
15.565	0.402	0.158	
15.570	-0.019	0.167	
15.575	-0.029	0.155	
15.580	0.406	0.136	
15.585	0.108	0.143	
15.590	-0.089	0.144	
15.595	0.273	0.128	
15.600	0.236	0.128	
15.605	-0.119	0.134	
15.610	0.052	0.114	
15.615	0.296	0.096	
15.620	-0.083	0.095	
15.625	-0.090	0.079	
15.630	0.246	0.056	
15.635	-0.034	0.051	
15.640	-0.187	0.039	
15.645	0.105	0.012	
15.650	0.120	0.003	
15.655	-0.176	0.006	
15.660	-0.011	-0.005	
15.665	0.255	-0.007	
15.670	-0.127	0.011	
15.675	-0.130	0.011	
15.680	0.244	0.003	
15.685	-0.011	0.014	
15.690	-0.150	0.021	
15.695	0.145	0.012	
15.700	0.137	0.019	
15.705	-0.173	0.030	
15.710	0.000	0.020	
15.715	0.288	0.017	
15.720	-0.104	0.034	
15.725	-0.104	0.035	
15.730	0.247	0.026	
15.735	-0.009	0.034	
15.740	-0.159	0.035	
15.745	0.149	0.021	
15.750	0.119	0.022	
15.755	-0.199	0.027	
15.760	-0.063	0.009	
15.765	0.177	-0.009	
15.770	-0.132	-0.008	
15.775	-0.148	-0.017	
15.780	0.192	-0.030	
15.785	-0.025	-0.020	
15.790	-0.181	-0.014	
15.795	0.120	-0.020	
15.800	0.105	-0.012	
15.805	-0.191	0.001	
15.810	-0.032	-0.008	
15.815	0.178	-0.014	
15.820	-0.159	-0.007	
15.825	-0.126	-0.014	
15.830	0.270	-0.022	
15.835	0.088	0.002	
15.840	-0.017	0.033	
15.845	0.409	0.063	
15.850	0.331	0.119	
15.855	-0.141	0.167	
15.860	-0.002	0.162	
15.865	0.131	0.129	
15.870	-0.193	0.092	
15.875	-0.177	0.037	
15.880	0.108	-0.017	
15.885	-0.138	-0.045	
15.890	-0.301	-0.072	
15.895	-0.080	-0.110	
15.900	-0.107	-0.135	
15.905	-0.339	-0.151	
15.910	-0.190	-0.176	
15.915	-0.035	-0.191	
15.920	-0.274	-0.188	
15.925	-0.248	-0.190	
15.930	0.026	-0.190	
15.935	-0.144	-0.171	
15.940	-0.249	-0.153	
15.945	0.053	-0.144	
15.950	0.056	-0.116	
15.955	-0.200	-0.083	
15.960	-0.037	-0.069	
15.965	0.223	-0.052	
15.970	-0.116	-0.020	
15.975	-0.095	-0.006	
15.980	0.285	0.001	
15.985	0.010	0.027	
15.990	-0.112	0.044	
15.995	0.295	0.048	
16.000	0.296	0.076	
16.005	-0.087	0.113	
16.010	0.148	0.123	
16.015	0.406	0.133	
16.020	-0.026	0.157	
16.025	-0.005	0.156	
16.030	0.424	0.144	
16.035	0.151	0.158	
16.040	-0.066	0.166	
16.045	0.324	0.155	
16.050	0.278	0.161	
16.055	-0.072	0.171	
16.060	0.157	0.158	
16.065	0.354	0.150	
16.070	-0.045	0.156	
16.075	-0.006	0.142	
16.080	0.400	0.125	
16.085	0.093	0.134	
16.090	-0.071	0.138	
16.095	0.348	0.128	
16.100	0.324	0.143	
16.105	-0.054	0.168	
16.110	0.154	0.166	
16.115	0.402	0.165	
16.120	-0.020	0.177	
16.125	0.032	0.168	
16.130	0.457	0.156	
16.135	0.172	0.173	
16.140	-0.019	0.185	
16.145	0.386	0.181	
16.150	0.371	0.198	
16.155	-0.046	0.219	
16.160	0.214	0.212	
16.165	0.398	0.205	
16.170	-0.054	0.208	
16.175	-0.029	0.183	
16.180	0.374	0.149	
16.185	0.036	0.140	
16.190	-0.122	0.124	
16.195	0.235	0.095	
16.200	0.165	0.087	
16.205	-0.141	0.086	
16.210	0.036	0.066	
16.215	0.250	0.053	
16.220	-0.135	0.055	
16.225	-0.087	0.041	
16.230	0.327	0.027	
16.235	-0.025	0.040	
16.240	-0.153	0.045	
16.245	0.233	0.035	
16.250	0.229	0.048	
16.255	-0.075	0.074	
16.260	0.261	0.089	
16.265	0.524	0.125	
16.270	-0.022	0.179	
16.275	-0.042	0.192	
16.280	0.264	0.171	
16.285	-0.051	0.149	
16.290	-0.185	0.110	
16.295	0.128	0.057	
16.300	0.087	0.027	
16.305	-0.194	0.013	
16.310	0.003	-0.010	
16.315	0.241	-0.018	
16.320	-0.121	-0.001	
16.325	-0.097	0.003	
16.330	0.295	0.003	
16.335	-0.022	0.025	
16.340	-0.144	0.036	
16.345	0.227	0.031	
16.350	0.163	0.044	
16.355	-0.153	0.061	
16.360	0.052	0.054	
16.365	0.293	0.052	
16.370	-0.101	0.066	
16.375	-0.101	0.060	
16.380	0.281	0.045	
16.385	0.012	0.051	
16.390	-0.122	0.053	
16.395	0.249	0.045	
16.400	0.178	0.058	
16.405	-0.139	0.076	
16.410	0.064	0.068	
16.415	0.290	0.065	
16.420	-0.103	0.076	
16.425	-0.058	0.069	
16.430	0.322	0.058	
16.435	-0.008	0.068	
16.440	-0.139	0.068	
16.445	0.244	0.054	
16.450	0.168	0.061	
16.455	-0.165	0.072	
16.460	0.030	0.058	
16.465	0.250	0.047	
16.470	-0.126	0.052	
16.475	-0.097	0.040	
16.480	0.275	0.025	
16.485	-0.014	0.033	
16.490	-0.148	0.036	
16.495	0.180	0.024	
16.500	0.137	0.030	
16.505	-0.161	0.041	
16.510	-0.003	0.030	
16.515	0.230	0.022	
16.520	-0.136	0.029	
16.525	-0.100	0.020	
16.530	0.253	0.009	
16.535	-0.034	0.019	
16.540	-0.139	0.022	
16.545	0.209	0.015	
16.550	0.134	0.028	
16.555	-0.158	0.044	
16.560	0.062	0.038	
16.565	0.279	0.040	
16.570	-0.126	0.056	
16.575	-0.095	0.051	
16.580	0.295	0.038	
16.585	-0.060	0.044	
16.590	-0.170	0.040	
16.595	0.110	0.017	
16.600	0.044	0.007	
16.605	-0.219	-0.000	
16.610	-0.048	-0.024	
16.615	0.136	-0.040	
16.620	-0.187	-0.038	
16.625	-0.162	-0.049	
16.630	0.133	-0.063	
16.635	-0.113	-0.058	
16.640	-0.229	-0.060	
16.645	0.052	-0.074	
16.650	0.020	-0.072	
16.655	-0.249	-0.065	
16.660	-0.066	-0.075	
16.665	0.097	-0.079	
16.670	-0.200	-0.070	
16.675	-0.129	-0.072	
16.680	0.279	-0.068	
16.685	0.058	-0.031	
16.690	-0.107	0.006	
16.695	0.172	0.024	
16.700	0.026	0.040	
16.705	-0.265	0.039	
16.710	-0.132	0.002	
16.715	-0.005	-0.041	
16.720	-0.272	-0.074	
16.725	-0.219	-0.112	
16.730	0.090	-0.138	
16.735	-0.132	-0.134	
16.740	-0.245	-0.126	
16.745	0.015	-0.127	
16.750	-0.006	-0.114	
16.755	-0.237	-0.098	
16.760	-0.052	-0.096	
16.765	0.131	-0.087	
16.770	-0.173	-0.065	
16.775	-0.116	-0.057	
16.780	0.259	-0.050	
16.785	-0.037	-0.020	
16.790	-0.138	0.001	
16.795	0.220	0.006	
16.800	0.157	0.029	
16.805	-0.148	0.053	
16.810	0.078	0.052	
16.815	0.296	0.056	
16.820	-0.124	0.073	
16.825	-0.063	0.067	
16.830	0.339	0.056	
16.835	0.013	0.069	
16.840	-0.106	0.075	
16.845	0.270	0.067	
16.850	0.185	0.080	
16.855	-0.141	0.094	
16.860	0.062	0.082	
16.865	0.233	0.071	
16.870	-0.156	0.070	
16.875	-0.110	0.048	
16.880	0.252	0.022	
16.885	-0.100	0.019	
16.890	-0.197	0.007	
16.895	0.125	-0.017	
16.900	0.039	-0.021	
16.905	-0.220	-0.020	
16.910	-0.046	-0.037	
16.915	0.116	-0.047	
16.920	-0.202	-0.044	
16.925	-0.152	-0.055	
16.930	0.159	-0.066	
16.935	-0.110	-0.057	
16.940	-0.211	-0.054	
16.945	0.113	-0.062	
16.950	0.007	-0.054	
16.955	-0.229	-0.044	
16.960	-0.022	-0.053	
16.965	0.163	-0.053	
16.970	-0.184	-0.037	
16.975	-0.129	-0.038	
16.980	0.185	-0.043	
16.985	-0.092	-0.031	
16.990	-0.182	-0.028	
16.995	0.145	-0.035	
17.000	0.046	-0.025	
17.005	-0.205	-0.014	
17.010	-0.005	-0.023	
17.015	0.148	-0.027	
17.020	-0.207	-0.019	
17.025	-0.176	-0.033	
17.030	0.085	-0.055	
17.035	-0.170	-0.064	
17.040	-0.271	-0.081	
17.045	-0.013	-0.107	
17.050	-0.063	-0.117	
17.055	-0.294	-0.120	
17.060	-0.110	-0.135	
17.065	0.018	-0.140	
17.070	-0.243	-0.131	
17.075	-0.223	-0.135	
17.080	0.035	-0.142	
17.085	-0.173	-0.134	
17.090	-0.265	-0.132	
17.095	0.010	-0.139	
17.100	-0.028	-0.129	
17.105	-0.208	-0.112	
17.110	0.068	-0.100	
17.115	0.365	-0.062	
17.120	-0.066	0.001	
17.125	-0.063	0.040	
17.130	0.195	0.052	
17.135	-0.142	0.057	
17.140	-0.246	0.033	
17.145	0.020	-0.013	
17.150	-0.028	-0.044	
17.155	-0.236	-0.064	
17.160	-0.031	-0.086	
17.165	0.130	-0.089	
17.170	-0.196	-0.072	
17.175	-0.118	-0.068	
17.180	0.226	-0.063	
17.185	-0.072	-0.037	
17.190	-0.162	-0.021	
17.195	0.227	-0.017	
17.200	0.143	0.008	
17.205	-0.156	0.036	
17.210	0.097	0.039	
17.215	0.307	0.050	
17.220	-0.087	0.074	
17.225	0.001	0.079	
17.230	0.351	0.079	
17.235	0.017	0.098	
17.240	-0.104	0.102	
17.245	0.308	0.090	
17.250	0.232	0.102	
17.255	-0.127	0.119	
17.260	0.148	0.111	
17.265	0.331	0.110	
17.270	-0.098	0.122	
17.275	-0.038	0.110	
17.280	0.333	0.091	
17.285	-0.014	0.093	
17.290	-0.133	0.085	
17.295	0.252	0.064	
17.300	0.166	0.066	
17.305	-0.142	0.076	
17.310	0.096	0.066	
17.315	0.282	0.064	
17.320	-0.153	0.074	
17.325	-0.090	0.061	
17.330	0.252	0.039	
17.335	-0.075	0.037	
17.340	-0.181	0.025	
17.345	0.159	0.002	
17.350	0.029	-0.002	
17.355	-0.223	-0.004	
17.360	-0.032	-0.025	
17.365	0.116	-0.039	
17.370	-0.219	-0.039	
17.375	-0.144	-0.054	
17.380	0.159	-0.067	
17.385	-0.118	-0.059	
17.390	-0.196	-0.056	
17.395	0.116	-0.063	
17.400	0.017	-0.052	
17.405	-0.216	-0.040	
17.410	0.024	-0.045	
17.415	0.232	-0.036	
17.420	-0.161	-0.010	
17.425	-0.097	-0.004	
17.430	0.261	-0.004	
17.435	-0.058	0.013	
17.440	-0.145	0.019	
17.445	0.249	0.014	
17.450	0.119	0.031	
17.455	-0.179	0.047	
17.460	0.056	0.038	
17.465	0.165	0.031	
17.470	-0.208	0.030	
17.475	-0.144	0.006	
17.480	0.169	-0.022	
17.485	-0.124	-0.029	
17.490	-0.210	-0.040	
17.495	0.125	-0.057	
17.500	0.003	-0.053	
17.505	-0.232	-0.046	
17.510	-0.017	-0.056	
17.515	0.149	-0.056	
17.520	-0.184	-0.041	
17.525	-0.126	-0.042	
17.530	0.183	-0.046	
17.535	-0.110	-0.034	
17.540	-0.188	-0.032	
17.545	0.188	-0.039	
17.550	0.116	-0.021	
17.555	-0.110	0.006	
17.560	0.308	0.027	
17.565	0.492	0.079	
17.570	-0.045	0.147	
17.575	-0.052	0.170	
17.580	0.201	0.152	
17.585	-0.153	0.124	
17.590	-0.234	0.072	
17.595	0.110	0.010	
17.600	0.033	-0.022	
17.605	-0.207	-0.035	
17.610	0.020	-0.051	
17.615	0.186	-0.049	
17.620	-0.165	-0.029	
17.625	-0.093	-0.024	
17.630	0.223	-0.023	
17.635	-0.106	-0.007	
17.640	-0.161	-0.005	
17.645	0.226	-0.012	
17.650	0.070	0.003	
17.655	-0.174	0.019	
17.660	0.068	0.014	
17.665	0.208	0.016	
17.670	-0.147	0.030	
17.675	-0.066	0.024	
17.680	0.290	0.017	
17.685	-0.054	0.032	
17.690	-0.132	0.036	
17.695	0.259	0.028	
17.700	0.139	0.044	
17.705	-0.132	0.062	
17.710	0.148	0.060	
17.715	0.321	0.071	
17.720	-0.110	0.094	
17.725	-0.017	0.092	
17.730	0.382	0.085	
17.735	-0.019	0.100	
17.740	-0.119	0.099	
17.745	0.256	0.080	
17.750	0.119	0.080	
17.755	-0.164	0.080	
17.760	0.084	0.060	
17.765	0.235	0.050	
17.770	-0.142	0.055	
17.775	-0.061	0.042	
17.780	0.253	0.027	
17.785	-0.080	0.032	
17.790	-0.158	0.025	
17.795	0.223	0.010	
17.800	0.082	0.017	
17.805	-0.176	0.027	
17.810	0.056	0.018	
17.815	0.235	0.017	
17.820	-0.161	0.031	
17.825	-0.104	0.023	
17.830	0.185	0.006	
17.835	-0.107	0.004	
17.840	-0.161	-0.006	
17.845	0.220	-0.020	
17.850	0.093	-0.006	
17.855	-0.159	0.014	
17.860	0.110	0.015	
17.865	0.267	0.028	
17.870	-0.122	0.054	
17.875	-0.014	0.057	
17.880	0.353	0.057	
17.885	-0.038	0.077	
17.890	-0.112	0.080	
17.895	0.256	0.066	
17.900	0.090	0.070	
17.905	-0.161	0.072	
17.910	0.097	0.053	
17.915	0.218	0.046	
17.920	-0.194	0.049	
17.925	-0.110	0.029	
17.930	0.185	0.003	
17.935	-0.126	-0.004	
17.940	-0.184	-0.018	
17.945	0.133	-0.039	
17.950	-0.002	-0.038	
17.955	-0.231	-0.035	
17.960	0.012	-0.048	
17.965	0.142	-0.049	
17.970	-0.199	-0.035	
17.975	-0.113	-0.040	
17.980	0.180	-0.046	
17.985	-0.156	-0.036	
17.990	-0.217	-0.041	
17.995	0.146	-0.056	
18.000	0.120	-0.044	
18.005	-0.075	-0.016	
18.010	0.340	0.015	
18.015	0.453	0.077	
18.020	-0.049	0.148	
18.025	-0.031	0.171	
18.030	0.211	0.155	
18.035	-0.133	0.131	
18.040	-0.188	0.083	
18.045	0.172	0.029	
18.050	0.044	0.006	
18.055	-0.185	-0.003	
18.060	0.082	-0.018	
18.065	0.214	-0.013	
18.070	-0.145	0.008	
18.075	-0.035	0.012	
18.080	0.293	0.015	
18.085	-0.074	0.036	
18.090	-0.124	0.041	
18.095	0.253	0.032	
18.100	0.102	0.045	
18.105	-0.144	0.057	
18.110	0.140	0.050	
18.115	0.285	0.057	
18.120	-0.119	0.077	
18.125	-0.025	0.074	
18.130	0.336	0.066	
18.135	-0.025	0.079	
18.140	-0.081	0.080	
18.145	0.337	0.073	
18.150	0.174	0.091	
18.155	-0.084	0.111	
18.160	0.214	0.111	
18.165	0.314	0.120	
18.170	-0.112	0.136	
18.175	0.010	0.124	
18.180	0.386	0.109	
18.185	-0.008	0.117	
18.190	-0.078	0.113	
18.195	0.325	0.097	
18.200	0.152	0.105	
18.205	-0.107	0.114	
18.210	0.180	0.102	
18.215	0.272	0.102	
18.220	-0.127	0.111	
18.225	-0.051	0.093	
18.230	0.263	0.069	
18.235	-0.068	0.063	
18.240	-0.122	0.049	
18.245	0.255	0.030	
18.250	0.073	0.036	
18.255	-0.153	0.044	
18.260	0.113	0.035	
18.265	0.208	0.036	
18.270	-0.159	0.047	
18.275	-0.049	0.037	
18.280	0.278	0.026	
18.285	-0.089	0.035	
18.290	-0.145	0.031	
18.295	0.192	0.014	
18.300	0.044	0.017	
18.305	-0.162	0.020	
18.310	0.149	0.012	
18.315	0.258	0.024	
18.320	-0.138	0.050	
18.325	-0.026	0.051	
18.330	0.348	0.050	
18.335	-0.043	0.069	
18.340	-0.106	0.073	
18.345	0.284	0.063	
18.350	0.097	0.072	
18.355	-0.174	0.077	
18.360	0.078	0.058	
18.365	0.122	0.042	
18.370	-0.202	0.032	
18.375	-0.110	0.003	
18.380	0.152	-0.024	
18.385	-0.139	-0.030	
18.390	-0.193	-0.043	
18.395	0.148	-0.058	
18.400	-0.011	-0.051	
18.405	-0.203	-0.041	
18.410	0.061	-0.046	
18.415	0.154	-0.036	
18.420	-0.194	-0.016	
18.425	-0.083	-0.019	
18.430	0.198	-0.024	
18.435	-0.119	-0.013	
18.440	-0.168	-0.015	
18.445	0.244	-0.023	
18.450	0.183	0.001	
18.455	-0.069	0.037	
18.460	0.342	0.066	
18.465	0.402	0.115	
18.470	-0.109	0.166	
18.475	-0.042	0.166	
18.480	0.214	0.137	
18.485	-0.145	0.109	
18.490	-0.194	0.062	
18.495	0.152	0.010	
18.500	0.017	-0.012	
18.505	-0.185	-0.020	
18.510	0.079	-0.033	
18.515	0.172	-0.027	
18.520	-0.177	-0.007	
18.525	-0.072	-0.008	
18.530	0.253	-0.010	
18.535	-0.113	0.005	
18.540	-0.170	0.006	
18.545	0.183	-0.008	
18.550	0.036	-0.002	
18.555	-0.177	0.004	
18.560	0.094	-0.003	
18.565	0.204	0.003	
18.570	-0.153	0.022	
18.575	-0.019	0.022	
18.580	0.284	0.022	
18.585	-0.078	0.040	
18.590	-0.109	0.042	
18.595	0.313	0.036	
18.600	0.108	0.055	
18.605	-0.133	0.073	
18.610	0.191	0.070	
18.615	0.270	0.079	
18.620	-0.124	0.097	
18.625	-0.028	0.088	
18.630	0.275	0.071	
18.635	-0.077	0.071	
18.640	-0.112	0.058	
18.645	0.281	0.040	
18.650	0.065	0.047	
18.655	-0.145	0.055	
18.660	0.151	0.045	
18.665	0.243	0.050	
18.670	-0.136	0.066	
18.675	-0.006	0.061	
18.680	0.293	0.053	
18.685	-0.081	0.063	
18.690	-0.122	0.056	
18.695	0.256	0.039	
18.700	0.056	0.044	
18.705	-0.190	0.047	
18.710	0.088	0.029	
18.715	0.174	0.022	
18.720	-0.165	0.027	
18.725	-0.040	0.015	
18.730	0.279	0.008	
18.735	-0.071	0.024	
18.740	-0.104	0.029	
18.745	0.296	0.027	
18.750	0.113	0.048	
18.755	-0.119	0.069	
18.760	0.204	0.070	
18.765	0.305	0.085	
18.770	-0.107	0.109	
18.775	0.009	0.106	
18.780	0.290	0.094	
18.785	-0.089	0.094	
18.790	-0.122	0.076	
18.795	0.232	0.048	
18.800	-0.003	0.042	
18.805	-0.207	0.031	
18.810	0.039	0.003	
18.815	0.108	-0.012	
18.820	-0.205	-0.015	
18.825	-0.104	-0.033	
18.830	0.163	-0.047	
18.835	-0.145	-0.041	
18.840	-0.171	-0.045	
18.845	0.149	-0.054	
18.850	-0.046	-0.045	
18.855	-0.226	-0.040	
18.860	0.026	-0.052	
18.865	0.093	-0.052	
18.870	-0.226	-0.043	
18.875	-0.103	-0.052	
18.880	0.217	-0.057	
18.885	-0.121	-0.039	
18.890	-0.097	-0.029	
18.895	0.402	-0.014	
18.900	0.217	0.038	
18.905	-0.119	0.090	
18.910	0.082	0.101	
18.915	0.102	0.095	
18.920	-0.232	0.077	
18.925	-0.129	0.031	
18.930	0.136	-0.013	
18.935	-0.156	-0.033	
18.940	-0.171	-0.053	
18.945	0.209	-0.066	
18.950	0.015	-0.049	
18.955	-0.168	-0.028	
18.960	0.128	-0.021	
18.965	0.198	-0.001	
18.970	-0.155	0.026	
18.975	-0.025	0.029	
18.980	0.298	0.029	
18.985	-0.064	0.047	
18.990	-0.083	0.051	
18.995	0.376	0.050	
19.000	0.113	0.077	
19.005	-0.127	0.098	
19.010	0.226	0.094	
19.015	0.292	0.103	
19.020	-0.107	0.121	
19.025	0.021	0.112	
19.030	0.354	0.100	
19.035	-0.040	0.108	
19.040	-0.069	0.101	
19.045	0.348	0.087	
19.050	0.134	0.099	
19.055	-0.110	0.110	
19.060	0.217	0.101	
19.065	0.285	0.106	
19.070	-0.118	0.120	
19.075	0.010	0.107	
19.080	0.327	0.092	
19.085	-0.060	0.095	
19.090	-0.116	0.084	
19.095	0.272	0.061	
19.100	0.067	0.062	
19.105	-0.164	0.062	
19.110	0.127	0.044	
19.115	0.169	0.039	
19.120	-0.173	0.043	
19.125	-0.038	0.027	
19.130	0.261	0.015	
19.135	-0.112	0.023	
19.140	-0.141	0.018	
19.145	0.212	0.004	
19.150	0.001	0.009	
19.155	-0.202	0.011	
19.160	0.079	-0.005	
19.165	0.146	-0.008	
19.170	-0.182	0.002	
19.175	-0.063	-0.007	
19.180	0.244	-0.013	
19.185	-0.107	0.001	
19.190	-0.135	0.003	
19.195	0.198	-0.005	
19.200	0.009	0.005	
19.205	-0.161	0.011	
19.210	0.142	0.004	
19.215	0.224	0.016	
19.220	-0.171	0.038	
19.225	-0.049	0.034	
19.230	0.244	0.025	
19.235	-0.109	0.031	
19.240	-0.132	0.023	
19.245	0.189	0.007	
19.250	-0.046	0.007	
19.255	-0.219	-0.000	
19.260	0.044	-0.024	
19.265	0.078	-0.034	
19.270	-0.231	-0.034	
19.275	-0.124	-0.051	
19.280	0.114	-0.067	
19.285	-0.177	-0.066	
19.290	-0.203	-0.073	
19.295	0.079	-0.087	
19.300	-0.075	-0.083	
19.305	-0.246	-0.081	
19.310	0.013	-0.090	
19.315	0.053	-0.086	
19.320	-0.197	-0.071	
19.325	-0.019	-0.068	
19.330	0.348	-0.048	
19.335	0.000	0.002	
19.340	-0.077	0.038	
19.345	0.236	0.053	
19.350	-0.051	0.066	
19.355	-0.254	0.055	
19.360	-0.043	0.012	
19.365	-0.005	-0.028	
19.370	-0.242	-0.055	
19.375	-0.119	-0.087	
19.380	0.107	-0.104	
19.385	-0.176	-0.097	
19.390	-0.207	-0.096	
19.395	0.128	-0.099	
19.400	-0.061	-0.083	
19.405	-0.225	-0.070	
19.410	0.036	-0.073	
19.415	0.094	-0.063	
19.420	-0.210	-0.046	
19.425	-0.066	-0.047	
19.430	0.217	-0.045	
19.435	-0.107	-0.023	
19.440	-0.133	-0.015	
19.445	0.215	-0.015	
19.450	0.012	0.002	
19.455	-0.167	0.013	
19.460	0.154	0.009	
19.465	0.197	0.020	
19.470	-0.139	0.041	
19.475	0.013	0.041	
19.480	0.316	0.042	
19.485	-0.081	0.061	
19.490	-0.100	0.062	
19.495	0.295	0.051	
19.500	0.061	0.062	
19.505	-0.136	0.069	
19.510	0.201	0.059	
19.515	0.241	0.067	
19.520	-0.136	0.083	
19.525	-0.009	0.074	
19.530	0.252	0.061	
19.535	-0.124	0.060	
19.540	-0.152	0.042	
19.545	0.214	0.015	
19.550	-0.022	0.011	
19.555	-0.211	0.005	
19.560	0.067	-0.016	
19.565	0.110	-0.022	
19.570	-0.210	-0.017	
19.575	-0.064	-0.029	
19.580	0.191	-0.036	
19.585	-0.136	-0.025	
19.590	-0.141	-0.025	
19.595	0.247	-0.028	
19.600	0.017	-0.008	
19.605	-0.148	0.010	
19.610	0.203	0.013	
19.615	0.263	0.036	
19.620	-0.116	0.069	
19.625	0.023	0.075	
19.630	0.330	0.076	
19.635	-0.063	0.091	
19.640	-0.083	0.087	
19.645	0.340	0.074	
19.650	0.097	0.086	
19.655	-0.113	0.096	
19.660	0.241	0.088	
19.665	0.288	0.098	
19.670	-0.126	0.117	
19.675	0.017	0.107	
19.680	0.302	0.092	
19.685	-0.092	0.092	
19.690	-0.129	0.075	
19.695	0.233	0.047	
19.700	-0.032	0.039	
19.705	-0.211	0.026	
19.710	0.084	-0.003	
19.715	0.117	-0.013	
19.720	-0.199	-0.010	
19.725	-0.055	-0.022	
19.730	0.203	-0.029	
19.735	-0.139	-0.017	
19.740	-0.147	-0.019	
19.745	0.192	-0.027	
19.750	-0.025	-0.016	
19.755	-0.185	-0.010	
19.760	0.116	-0.018	
19.765	0.212	-0.007	
19.770	-0.090	0.021	
19.775	0.206	0.042	
19.780	0.473	0.081	
19.785	-0.040	0.136	
19.790	-0.129	0.151	
19.795	0.163	0.124	
19.800	-0.087	0.093	
19.805	-0.251	0.048	
19.810	0.023	-0.009	
19.815	0.064	-0.042	
19.820	-0.211	-0.053	
19.825	-0.081	-0.069	
19.830	0.159	-0.074	
19.835	-0.159	-0.059	
19.840	-0.158	-0.056	
19.845	0.181	-0.057	
19.850	-0.040	-0.040	
19.855	-0.173	-0.027	
19.860	0.130	-0.028	
19.865	0.152	-0.012	
19.870	-0.171	0.010	
19.875	-0.014	0.010	
19.880	0.290	0.012	
19.885	-0.092	0.033	
19.890	-0.115	0.036	
19.895	0.272	0.029	
19.900	0.003	0.040	
19.905	-0.156	0.044	
19.910	0.185	0.032	
19.915	0.203	0.039	
19.920	-0.159	0.055	
19.925	0.012	0.048	
19.930	0.250	0.041	
19.935	-0.122	0.048	
19.940	-0.116	0.038	
19.945	0.276	0.022	
19.950	0.018	0.031	
19.955	-0.144	0.038	
19.960	0.186	0.030	
19.965	0.180	0.040	
19.970	-0.155	0.055	
19.975	0.017	0.047	
19.980	0.307	0.043	
19.985	-0.092	0.058	
19.990	-0.112	0.055	
19.995	0.269	0.041	
20.000	0.004	0.047	
20.005	-0.167	0.046	
20.010	0.131	0.028	
20.015	0.159	0.026	
20.020	-0.167	0.033	
20.025	-0.026	0.021	
20.030	0.212	0.011	
20.035	-0.113	0.017	
20.040	-0.107	0.011	
20.045	0.266	0.004	
20.050	-0.003	0.019	
20.055	-0.170	0.027	
20.060	0.136	0.016	
20.065	0.148	0.019	
20.070	-0.162	0.030	
20.075	-0.003	0.021	
20.080	0.269	0.018	
20.085	-0.087	0.033	
20.090	-0.089	0.035	
20.095	0.273	0.030	
20.100	0.035	0.044	
20.105	-0.141	0.053	
20.110	0.186	0.044	
20.115	0.157	0.050	
20.120	-0.167	0.059	
20.125	-0.017	0.043	
20.130	0.230	0.029	
20.135	-0.142	0.031	
20.140	-0.148	0.016	
20.145	0.145	-0.007	
20.150	-0.068	-0.014	
20.155	-0.202	-0.024	
20.160	0.075	-0.042	
20.165	0.056	-0.044	
20.170	-0.210	-0.037	
20.175	-0.046	-0.046	
20.180	0.174	-0.048	
20.185	-0.174	-0.034	
20.190	-0.150	-0.036	
20.195	0.188	-0.043	
20.200	-0.046	-0.031	
20.205	-0.182	-0.023	
20.210	0.110	-0.029	
20.215	0.091	-0.020	
20.220	-0.164	-0.006	
20.225	0.122	-0.004	
20.230	0.481	0.024	
20.235	0.064	0.086	
20.240	0.007	0.129	
20.245	0.328	0.146	
20.250	-0.019	0.156	
20.255	-0.232	0.136	
20.260	0.032	0.079	
20.265	0.062	0.032	
20.270	-0.200	0.001	
20.275	-0.023	-0.031	
20.280	0.189	-0.044	
20.285	-0.150	-0.033	
20.290	-0.139	-0.033	
20.295	0.220	-0.036	
20.300	-0.029	-0.019	
20.305	-0.167	-0.007	
20.310	0.140	-0.010	
20.315	0.124	0.001	
20.320	-0.179	0.016	
20.325	0.001	0.010	
20.330	0.276	0.009	
20.335	-0.116	0.028	
20.340	-0.109	0.029	
20.345	0.264	0.020	
20.350	0.010	0.033	
20.355	-0.139	0.039	
20.360	0.212	0.033	
20.365	0.198	0.046	
20.370	-0.136	0.065	
20.375	0.062	0.063	
20.380	0.287	0.062	
20.385	-0.090	0.076	
20.390	-0.069	0.070	
20.395	0.348	0.060	
20.400	0.010	0.073	
20.405	-0.130	0.077	
20.410	0.226	0.064	
20.415	0.197	0.069	
20.420	-0.136	0.082	
20.425	0.052	0.071	
20.430	0.295	0.065	
20.435	-0.101	0.075	
20.440	-0.109	0.065	
20.445	0.263	0.046	
20.450	-0.032	0.046	
20.455	-0.167	0.038	
20.460	0.130	0.017	
20.465	0.131	0.014	
20.470	-0.153	0.020	
20.475	-0.009	0.011	
20.480	0.232	0.008	
20.485	-0.132	0.019	
20.490	-0.113	0.015	
20.495	0.244	0.005	
20.500	-0.014	0.015	
20.505	-0.147	0.021	
20.510	0.180	0.014	
20.515	0.154	0.025	
20.520	-0.179	0.040	
20.525	-0.014	0.030	
20.530	0.261	0.022	
20.535	-0.116	0.032	
20.540	-0.095	0.028	
20.545	0.307	0.021	
20.550	0.023	0.038	
20.555	-0.136	0.050	
20.560	0.272	0.047	
20.565	0.236	0.067	
20.570	-0.110	0.094	
20.575	0.107	0.095	
20.580	0.354	0.099	
20.585	-0.068	0.118	
20.590	-0.058	0.112	
20.595	0.324	0.095	
20.600	0.023	0.098	
20.605	-0.130	0.092	
20.610	0.142	0.068	
20.615	0.133	0.056	
20.620	-0.179	0.051	
20.625	-0.019	0.028	
20.630	0.209	0.011	
20.635	-0.104	0.014	
20.640	-0.121	0.008	
20.645	0.232	-0.002	
20.650	-0.019	0.008	
20.655	-0.153	0.014	
20.660	0.152	0.006	
20.665	0.125	0.014	
20.670	-0.170	0.026	
20.675	0.018	0.018	
20.680	0.321	0.019	
20.685	-0.019	0.046	
20.690	0.096	0.068	
20.695	0.550	0.100	
20.700	0.133	0.158	
20.705	-0.116	0.190	
20.710	0.139	0.172	
20.715	0.038	0.141	
20.720	-0.237	0.099	
20.725	-0.054	0.037	
20.730	0.171	-0.008	
20.735	-0.155	-0.023	
20.740	-0.135	-0.038	
20.745	0.178	-0.050	
20.750	-0.068	-0.040	
20.755	-0.176	-0.033	
20.760	0.111	-0.038	
20.765	0.093	-0.027	
20.770	-0.167	-0.011	
20.775	0.020	-0.011	
20.780	0.246	-0.003	
20.785	-0.145	0.018	
20.790	-0.109	0.018	
20.795	0.252	0.009	
20.800	-0.014	0.021	
20.805	-0.135	0.027	
20.810	0.197	0.021	
20.815	0.152	0.033	
20.820	-0.158	0.049	
20.825	0.030	0.041	
20.830	0.261	0.038	
20.835	-0.106	0.050	
20.840	-0.075	0.045	
20.845	0.288	0.036	
20.850	-0.008	0.048	
20.855	-0.155	0.050	
20.860	0.168	0.035	
20.865	0.131	0.036	
20.870	-0.161	0.042	
20.875	0.021	0.029	
20.880	0.247	0.024	
20.885	-0.119	0.035	
20.890	-0.087	0.030	
20.895	0.278	0.022	
20.900	-0.016	0.034	
20.905	-0.156	0.038	
20.910	0.168	0.026	
20.915	0.116	0.029	
20.920	-0.162	0.036	
20.925	0.000	0.023	
20.930	0.172	0.013	
20.935	-0.158	0.014	
20.940	-0.119	0.000	
20.945	0.194	-0.016	
20.950	-0.049	-0.011	
20.955	-0.170	-0.010	
20.960	0.145	-0.019	
20.965	0.107	-0.009	
20.970	-0.179	0.005	
20.975	0.009	0.000	
20.980	0.230	0.001	
20.985	-0.116	0.018	
20.990	-0.090	0.018	
20.995	0.288	0.015	
21.000	-0.008	0.032	
21.005	-0.144	0.041	
21.010	0.188	0.033	
21.015	0.169	0.041	
21.020	-0.138	0.056	
21.025	0.076	0.051	
21.030	0.311	0.054	
21.035	-0.087	0.074	
21.040	-0.057	0.074	
21.045	0.316	0.066	
21.050	-0.005	0.076	
21.055	-0.141	0.074	
21.060	0.185	0.055	
21.065	0.122	0.052	
21.070	-0.171	0.052	
21.075	-0.006	0.033	
21.080	0.181	0.017	
21.085	-0.165	0.015	
21.090	-0.127	-0.002	
21.095	0.163	-0.021	
21.100	-0.069	-0.021	
21.105	-0.176	-0.024	
21.110	0.127	-0.035	
21.115	0.119	-0.024	
21.120	-0.193	-0.007	
21.125	-0.020	-0.010	
21.130	0.217	-0.011	
21.135	-0.084	0.006	
21.140	-0.002	0.015	
21.145	0.502	0.036	
21.150	0.281	0.099	
21.155	0.018	0.162	
21.160	0.292	0.191	
21.165	0.108	0.202	
21.170	-0.202	0.185	
21.175	-0.061	0.126	
21.180	0.125	0.064	
21.185	-0.161	0.023	
21.190	-0.113	-0.015	
21.195	0.238	-0.038	
21.200	-0.034	-0.027	
21.205	-0.156	-0.016	
21.210	0.185	-0.015	
21.215	0.140	0.004	
21.220	-0.139	0.028	
21.225	0.067	0.031	
21.230	0.247	0.038	
21.235	-0.115	0.055	
21.240	-0.054	0.052	
21.245	0.327	0.045	
21.250	0.021	0.062	
21.255	-0.103	0.072	
21.260	0.243	0.066	
21.265	0.214	0.078	
21.270	-0.121	0.095	
21.275	0.091	0.089	
21.280	0.311	0.087	
21.285	-0.081	0.099	
21.290	-0.046	0.091	
21.295	0.345	0.079	
21.300	0.049	0.090	
21.305	-0.101	0.095	
21.310	0.243	0.083	
21.315	0.197	0.089	
21.320	-0.124	0.100	
21.325	0.076	0.087	
21.330	0.310	0.081	
21.335	-0.074	0.091	
21.340	-0.035	0.086	
21.345	0.339	0.076	
21.350	0.033	0.088	
21.355	-0.101	0.092	
21.360	0.238	0.080	
21.365	0.183	0.085	
21.370	-0.135	0.094	
21.375	0.062	0.079	
21.380	0.296	0.071	
21.385	-0.090	0.080	
21.390	-0.081	0.071	
21.395	0.263	0.054	
21.400	-0.008	0.056	
21.405	-0.132	0.052	
21.410	0.214	0.037	
21.415	0.128	0.043	
21.420	-0.152	0.053	
21.425	0.050	0.042	
21.430	0.235	0.037	
21.435	-0.133	0.046	
21.440	-0.083	0.037	
21.445	0.287	0.025	
21.450	0.017	0.038	
21.455	-0.110	0.047	
21.460	0.267	0.046	
21.465	0.230	0.067	
21.470	-0.113	0.093	
21.475	0.094	0.094	
21.480	0.308	0.094	
21.485	-0.095	0.105	
21.490	-0.064	0.094	
21.495	0.292	0.074	
21.500	-0.028	0.073	
21.505	-0.164	0.063	
21.510	0.163	0.037	
21.515	0.058	0.028	
21.520	-0.205	0.022	
21.525	-0.019	-0.003	
21.530	0.136	-0.019	
21.535	-0.173	-0.020	
21.540	-0.133	-0.032	
21.545	0.206	-0.043	
21.550	-0.077	-0.031	
21.555	-0.188	-0.026	
21.560	0.099	-0.035	
21.565	0.041	-0.030	
21.570	-0.202	-0.024	
21.575	-0.008	-0.033	
21.580	0.249	-0.030	
21.585	-0.103	-0.005	
21.590	-0.017	0.009	
21.595	0.431	0.028	
21.600	0.046	0.073	
21.605	-0.150	0.099	
21.610	0.102	0.086	
21.615	0.003	0.067	
21.620	-0.251	0.038	
21.625	-0.090	-0.010	
21.630	0.081	-0.048	
21.635	-0.181	-0.063	
21.640	-0.133	-0.078	
21.645	0.194	-0.082	
21.650	-0.069	-0.061	
21.655	-0.171	-0.044	
21.660	0.143	-0.041	
21.665	0.079	-0.022	
21.670	-0.171	-0.003	
21.675	0.006	-0.005	
21.680	0.191	-0.004	
21.685	-0.138	0.009	
21.690	-0.118	0.005	
21.695	0.214	-0.006	
21.700	-0.057	0.002	
21.705	-0.164	0.002	
21.710	0.151	-0.009	
21.715	0.084	-0.002	
21.720	-0.184	0.008	
21.725	-0.003	-0.002	
21.730	0.209	-0.006	
21.735	-0.129	0.007	
21.740	-0.071	0.006	
21.745	0.247	0.004	
21.750	-0.038	0.020	
21.755	-0.141	0.025	
21.760	0.163	0.016	
21.765	0.101	0.022	
21.770	-0.187	0.029	
21.775	0.003	0.014	
21.780	0.204	0.006	
21.785	-0.153	0.012	
21.790	-0.116	0.003	
21.795	0.168	-0.012	
21.800	-0.086	-0.011	
21.805	-0.181	-0.017	
21.810	0.125	-0.032	
21.815	0.041	-0.028	
21.820	-0.229	-0.022	
21.825	-0.052	-0.037	
21.830	0.105	-0.048	
21.835	-0.188	-0.046	
21.840	-0.155	-0.056	
21.845	0.119	-0.068	
21.850	-0.130	-0.064	
21.855	-0.229	-0.067	
21.860	0.052	-0.081	
21.865	0.009	-0.078	
21.870	-0.228	-0.070	
21.875	-0.058	-0.076	
21.880	0.085	-0.077	
21.885	-0.196	-0.067	
21.890	-0.156	-0.071	
21.895	0.136	-0.077	
21.900	-0.081	-0.064	
21.905	-0.184	-0.056	
21.910	0.099	-0.058	
21.915	0.032	-0.046	
21.920	-0.203	-0.033	
21.925	-0.022	-0.039	
21.930	0.139	-0.040	
21.935	-0.193	-0.030	
21.940	-0.147	-0.038	
21.945	0.124	-0.051	
21.950	-0.156	-0.051	
21.955	-0.272	-0.063	
21.960	-0.029	-0.091	
21.965	-0.089	-0.107	
21.970	-0.304	-0.119	
21.975	-0.127	-0.141	
21.980	-0.031	-0.153	
21.985	-0.284	-0.152	
21.990	-0.240	-0.163	
21.995	0.003	-0.173	
22.000	-0.185	-0.165	
22.005	-0.275	-0.161	
22.010	-0.028	-0.164	
22.015	-0.074	-0.154	
22.020	-0.278	-0.142	
22.025	-0.090	-0.143	
22.030	0.055	-0.135	
22.035	-0.184	-0.115	
22.040	-0.075	-0.101	
22.045	0.347	-0.075	
22.050	-0.017	-0.021	
22.055	-0.199	0.015	
22.060	0.015	0.011	
22.065	-0.090	-0.004	
22.070	-0.309	-0.033	
22.075	-0.126	-0.080	
22.080	0.006	-0.114	
22.085	-0.240	-0.125	
22.090	-0.202	-0.139	
22.095	0.072	-0.147	
22.100	-0.136	-0.133	
22.105	-0.222	-0.120	
22.110	0.065	-0.116	
22.115	-0.023	-0.098	
22.120	-0.251	-0.081	
22.125	-0.051	-0.085	
22.130	0.068	-0.084	
22.135	-0.228	-0.075	
22.140	-0.164	-0.082	
22.145	0.113	-0.090	
22.150	-0.130	-0.081	
22.155	-0.200	-0.078	
22.160	0.096	-0.082	
22.165	-0.003	-0.069	
22.170	-0.199	-0.055	
22.175	-0.023	-0.058	
22.180	0.128	-0.054	
22.185	-0.184	-0.040	
22.190	-0.122	-0.042	
22.195	0.208	-0.046	
22.200	-0.077	-0.029	
22.205	-0.176	-0.021	
22.210	0.157	-0.026	
22.215	0.062	-0.014	
22.220	-0.200	-0.002	
22.225	-0.014	-0.012	
22.230	0.146	-0.018	
22.235	-0.168	-0.013	
22.240	-0.110	-0.022	
22.245	0.204	-0.031	
22.250	-0.092	-0.020	
22.255	-0.197	-0.019	
22.260	0.101	-0.033	
22.265	0.023	-0.032	
22.270	-0.208	-0.029	
22.275	-0.023	-0.041	
22.280	0.119	-0.046	
22.285	-0.184	-0.038	
22.290	-0.116	-0.044	
22.295	0.186	-0.050	
22.300	-0.104	-0.036	
22.305	-0.187	-0.032	
22.310	0.139	-0.040	
22.315	0.059	-0.030	
22.320	-0.196	-0.016	
22.325	0.027	-0.021	
22.330	0.174	-0.018	
22.335	-0.173	-0.003	
22.340	-0.106	-0.009	
22.345	0.189	-0.019	
22.350	-0.075	-0.011	
22.355	-0.144	-0.010	
22.360	0.192	-0.016	
22.365	0.096	0.000	
22.370	-0.141	0.019	
22.375	0.068	0.019	
22.380	0.230	0.026	
22.385	-0.133	0.043	
22.390	-0.066	0.039	
22.395	0.276	0.030	
22.400	-0.075	0.039	
22.405	-0.167	0.035	
22.410	0.159	0.014	
22.415	0.017	0.009	
22.420	-0.229	0.004	
22.425	-0.035	-0.022	
22.430	0.085	-0.040	
22.435	-0.213	-0.046	
22.440	-0.138	-0.062	
22.445	0.134	-0.075	
22.450	-0.127	-0.067	
22.455	-0.203	-0.066	
22.460	0.120	-0.072	
22.465	0.030	-0.059	
22.470	-0.197	-0.042	
22.475	-0.003	-0.043	
22.480	0.137	-0.039	
22.485	-0.159	-0.024	
22.490	-0.043	-0.023	
22.495	0.380	-0.012	
22.500	0.105	0.034	
22.505	0.023	0.078	
22.510	0.437	0.113	
22.515	0.227	0.161	
22.520	-0.144	0.189	
22.525	0.012	0.166	
22.530	0.114	0.124	
22.535	-0.196	0.082	
22.540	-0.116	0.028	
22.545	0.178	-0.015	
22.550	-0.104	-0.027	
22.555	-0.174	-0.038	
22.560	0.152	-0.050	
22.565	0.049	-0.038	
22.570	-0.194	-0.023	
22.575	0.013	-0.026	
22.580	0.130	-0.025	
22.585	-0.185	-0.015	
22.590	-0.109	-0.024	
22.595	0.201	-0.033	
22.600	-0.086	-0.022	
22.605	-0.152	-0.018	
22.610	0.198	-0.022	
22.615	0.085	-0.004	
22.620	-0.161	0.015	
22.625	0.084	0.014	
22.630	0.232	0.023	
22.635	-0.130	0.042	
22.640	-0.045	0.040	
22.645	0.322	0.037	
22.650	-0.016	0.055	
22.655	-0.133	0.061	
22.660	0.246	0.051	
22.665	0.104	0.058	
22.670	-0.144	0.065	
22.675	0.108	0.053	
22.680	0.270	0.053	
22.685	-0.121	0.068	
22.690	-0.038	0.062	
22.695	0.299	0.052	
22.700	-0.048	0.062	
22.705	-0.121	0.059	
22.710	0.246	0.044	
22.715	0.110	0.051	
22.720	-0.161	0.059	
22.725	0.111	0.048	
22.730	0.168	0.044	
22.735	-0.147	0.048	
22.740	-0.055	0.032	
22.745	0.273	0.020	
22.750	-0.055	0.030	
22.755	-0.133	0.031	
22.760	0.214	0.020	
22.765	0.079	0.029	
22.770	-0.161	0.037	
22.775	0.094	0.028	
22.780	0.204	0.029	
22.785	-0.147	0.040	
22.790	-0.063	0.032	
22.795	0.264	0.021	
22.800	-0.054	0.031	
22.805	-0.104	0.033	
22.810	0.250	0.027	
22.815	0.099	0.042	
22.820	-0.136	0.056	
22.825	0.159	0.052	
22.830	0.281	0.062	
22.835	-0.101	0.084	
22.840	-0.002	0.082	
22.845	0.339	0.078	
22.850	-0.016	0.091	
22.855	-0.097	0.091	
22.860	0.279	0.077	
22.865	0.139	0.084	
22.870	-0.135	0.091	
22.875	0.114	0.077	
22.880	0.206	0.070	
22.885	-0.147	0.071	
22.890	-0.063	0.051	
22.895	0.212	0.029	
22.900	-0.095	0.026	
22.905	-0.147	0.013	
22.910	0.174	-0.005	
22.915	-0.020	-0.005	
22.920	-0.196	-0.007	
22.925	0.047	-0.023	
22.930	0.169	-0.024	
22.935	-0.144	-0.009	
22.940	-0.055	-0.008	
22.945	0.235	-0.007	
22.950	-0.081	0.011	
22.955	-0.135	0.014	
22.960	0.241	0.008	
22.965	0.154	0.027	
22.970	-0.054	0.054	
22.975	0.365	0.076	
22.980	0.510	0.128	
22.985	-0.009	0.193	
22.990	0.038	0.214	
22.995	0.247	0.199	
23.000	-0.098	0.175	
23.005	-0.164	0.126	
23.010	0.178	0.067	
23.015	0.039	0.036	
23.020	-0.152	0.020	
23.025	0.084	-0.001	
23.030	0.197	-0.001	
23.035	-0.141	0.015	
23.040	-0.037	0.014	
23.045	0.282	0.014	
23.050	-0.045	0.034	
23.055	-0.101	0.042	
23.060	0.285	0.040	
23.065	0.136	0.059	
23.070	-0.124	0.078	
23.075	0.171	0.075	
23.080	0.270	0.083	
23.085	-0.104	0.099	
23.090	0.018	0.093	
23.095	0.334	0.085	
23.100	-0.009	0.096	
23.105	-0.078	0.095	
23.110	0.296	0.083	
23.115	0.160	0.093	
23.120	-0.101	0.104	
23.125	0.195	0.098	
23.130	0.333	0.105	
23.135	-0.054	0.127	
23.140	0.059	0.127	
23.145	0.397	0.125	
23.150	0.021	0.141	
23.155	-0.060	0.141	
23.160	0.350	0.126	
23.165	0.181	0.133	
23.170	-0.104	0.141	
23.175	0.192	0.126	
23.180	0.263	0.120	
23.185	-0.109	0.123	
23.190	-0.002	0.104	
23.195	0.336	0.086	
23.200	-0.042	0.090	
23.205	-0.116	0.082	
23.210	0.218	0.060	
23.215	0.078	0.057	
23.220	-0.150	0.055	
23.225	0.090	0.038	
23.230	0.214	0.034	
23.235	-0.121	0.044	
23.240	-0.037	0.037	
23.245	0.276	0.031	
23.250	-0.069	0.043	
23.255	-0.148	0.040	
23.260	0.204	0.024	
23.265	0.058	0.026	
23.270	-0.164	0.030	
23.275	0.097	0.018	
23.280	0.211	0.020	
23.285	-0.122	0.036	
23.290	-0.009	0.035	
23.295	0.322	0.036	
23.300	-0.032	0.058	
23.305	-0.095	0.066	
23.310	0.263	0.059	
23.315	0.128	0.071	
23.320	-0.109	0.082	
23.325	0.186	0.077	
23.330	0.292	0.086	
23.335	-0.090	0.106	
23.340	0.021	0.102	
23.345	0.269	0.092	
23.350	-0.071	0.092	
23.355	-0.158	0.074	
23.360	0.171	0.041	
23.365	0.033	0.028	
23.370	-0.167	0.019	
23.375	0.076	0.001	
23.380	0.160	-0.001	
23.385	-0.158	0.009	
23.390	-0.069	0.002	
23.395	0.192	-0.007	
23.400	-0.103	0.000	
23.405	-0.159	-0.004	
23.410	0.139	-0.019	
23.415	-0.003	-0.017	
23.420	-0.203	-0.017	
23.425	0.039	-0.030	
23.430	0.186	-0.029	
23.435	-0.106	-0.008	
23.440	0.084	0.006	
23.445	0.490	0.037	
23.450	0.047	0.097	
23.455	-0.084	0.132	
23.460	0.198	0.128	
23.465	-0.008	0.116	
23.470	-0.228	0.087	
23.475	-0.011	0.035	
23.480	0.093	-0.005	
23.485	-0.188	-0.024	
23.490	-0.083	-0.046	
23.495	0.171	-0.056	
23.500	-0.110	-0.045	
23.505	-0.150	-0.040	
23.510	0.189	-0.040	
23.515	0.020	-0.022	
23.520	-0.193	-0.007	
23.525	0.075	-0.012	
23.530	0.166	-0.006	
23.535	-0.156	0.009	
23.540	-0.052	0.006	
23.545	0.259	0.003	
23.550	-0.106	0.018	
23.555	-0.144	0.017	
23.560	0.204	0.005	
23.565	0.042	0.012	
23.570	-0.167	0.019	
23.575	0.079	0.009	
23.580	0.166	0.010	
23.585	-0.162	0.020	
23.590	-0.049	0.012	
23.595	0.232	0.004	
23.600	-0.101	0.014	
23.605	-0.132	0.012	
23.610	0.261	0.004	
23.615	0.050	0.019	
23.620	-0.153	0.033	
23.625	0.101	0.027	
23.630	0.192	0.030	
23.635	-0.152	0.041	
23.640	-0.048	0.032	
23.645	0.255	0.022	
23.650	-0.075	0.031	
23.655	-0.116	0.029	
23.660	0.220	0.019	
23.665	0.032	0.026	
23.670	-0.170	0.031	
23.675	0.090	0.017	
23.680	0.180	0.016	
23.685	-0.159	0.026	
23.690	-0.058	0.017	
23.695	0.209	0.006	
23.700	-0.106	0.012	
23.705	-0.144	0.005	
23.710	0.186	-0.008	
23.715	0.049	-0.001	
23.720	-0.164	0.009	
23.725	0.090	0.003	
23.730	0.181	0.009	
23.735	-0.138	0.024	
23.740	-0.037	0.022	
23.745	0.269	0.019	
23.750	-0.037	0.035	
23.755	-0.092	0.042	
23.760	0.299	0.041	
23.765	0.133	0.062	
23.770	-0.110	0.082	
23.775	0.201	0.082	
23.780	0.279	0.093	
23.785	-0.103	0.112	
23.790	0.013	0.104	
23.795	0.314	0.093	
23.800	-0.072	0.096	
23.805	-0.126	0.082	
23.810	0.232	0.056	
23.815	0.013	0.049	
23.820	-0.190	0.040	
23.825	0.020	0.012	
23.830	0.085	-0.007	
23.835	-0.217	-0.016	
23.840	-0.112	-0.039	
23.845	0.128	-0.058	
23.850	-0.136	-0.056	
23.855	-0.165	-0.059	
23.860	0.145	-0.064	
23.865	-0.025	-0.050	
23.870	-0.203	-0.039	
23.875	0.039	-0.045	
23.880	0.122	-0.039	
23.885	-0.161	-0.024	
23.890	0.001	-0.021	
23.895	0.337	-0.007	
23.900	0.036	0.034	
23.905	-0.029	0.065	
23.910	0.276	0.080	
23.915	0.009	0.097	
23.920	-0.210	0.092	
23.925	-0.020	0.052	
23.930	0.030	0.013	
23.935	-0.210	-0.016	
23.940	-0.083	-0.050	
23.945	0.201	-0.065	
23.950	-0.095	-0.050	
23.955	-0.118	-0.038	
23.960	0.235	-0.030	
23.965	0.076	-0.001	
23.970	-0.152	0.025	
23.975	0.136	0.029	
23.980	0.250	0.042	
23.985	-0.086	0.067	
23.990	0.021	0.071	
23.995	0.337	0.073	
24.000	-0.023	0.092	
24.005	-0.051	0.095	
24.010	0.347	0.090	
24.015	0.151	0.107	
24.020	-0.103	0.121	
24.025	0.195	0.112	
24.030	0.284	0.113	
24.035	-0.074	0.125	
24.040	0.068	0.117	
24.045	0.391	0.112	
24.050	0.012	0.129	
24.055	-0.052	0.130	
24.060	0.369	0.120	
24.065	0.174	0.132	
24.070	-0.063	0.144	
24.075	0.281	0.138	
24.080	0.316	0.148	
24.085	-0.092	0.163	
24.090	0.033	0.148	
24.095	0.348	0.128	
24.100	-0.055	0.126	
24.105	-0.089	0.108	
24.110	0.273	0.082	
24.115	0.055	0.077	
24.120	-0.139	0.072	
24.125	0.148	0.052	
24.130	0.220	0.051	
24.135	-0.141	0.061	
24.140	-0.022	0.051	
24.145	0.264	0.040	
24.150	-0.061	0.048	
24.155	-0.083	0.046	
24.160	0.266	0.038	
24.165	0.041	0.050	
24.170	-0.148	0.055	
24.175	0.127	0.042	
24.180	0.211	0.042	
24.185	-0.135	0.054	
24.190	-0.046	0.044	
24.195	0.246	0.033	
24.200	-0.075	0.038	
24.205	-0.103	0.033	
24.210	0.266	0.024	
24.215	0.096	0.039	
24.220	-0.124	0.055	
24.225	0.183	0.054	
24.230	0.244	0.066	
24.235	-0.110	0.086	
24.240	0.007	0.081	
24.245	0.250	0.071	
24.250	-0.092	0.072	
24.255	-0.142	0.056	
24.260	0.188	0.029	
24.265	0.009	0.021	
24.270	-0.177	0.015	
24.275	0.056	-0.004	
24.280	0.117	-0.010	
24.285	-0.193	-0.007	
24.290	-0.086	-0.020	
24.295	0.154	-0.033	
24.300	-0.148	-0.030	
24.305	-0.181	-0.037	
24.310	0.134	-0.052	
24.315	-0.019	-0.046	
24.320	-0.207	-0.040	
24.325	0.017	-0.048	
24.330	0.107	-0.047	
24.335	-0.181	-0.035	
24.340	-0.037	-0.036	
24.345	0.325	-0.027	
24.350	0.035	0.012	
24.355	0.036	0.050	
24.360	0.374	0.081	
24.365	0.052	0.120	
24.370	-0.200	0.130	
24.375	-0.013	0.094	
24.380	0.030	0.050	
24.385	-0.225	0.011	
24.390	-0.109	-0.035	
24.395	0.200	-0.062	
24.400	-0.126	-0.056	
24.405	-0.159	-0.053	
24.410	0.160	-0.054	
24.415	0.003	-0.038	
24.420	-0.168	-0.023	
24.425	0.097	-0.022	
24.430	0.183	-0.008	
24.435	-0.152	0.015	
24.440	-0.028	0.017	
24.445	0.259	0.017	
24.450	-0.078	0.033	
24.455	-0.100	0.035	
24.460	0.256	0.028	
24.465	0.090	0.043	
24.470	-0.162	0.055	
24.475	0.101	0.045	
24.480	0.195	0.042	
24.485	-0.133	0.050	
24.490	-0.020	0.040	
24.495	0.278	0.033	
24.500	-0.078	0.044	
24.505	-0.113	0.042	
24.510	0.255	0.031	
24.515	0.084	0.042	
24.520	-0.130	0.053	
24.525	0.148	0.047	
24.530	0.177	0.052	
24.535	-0.152	0.060	
24.540	-0.029	0.046	
24.545	0.256	0.033	
24.550	-0.077	0.039	
24.555	-0.127	0.034	
24.560	0.209	0.019	
24.565	0.035	0.024	
24.570	-0.181	0.026	
24.575	0.082	0.011	
24.580	0.160	0.008	
24.585	-0.162	0.017	
24.590	-0.054	0.007	
24.595	0.212	-0.001	
24.600	-0.101	0.007	
24.605	-0.136	0.004	
24.610	0.201	-0.006	
24.615	0.007	0.003	
24.620	-0.164	0.009	
24.625	0.090	-0.000	
24.630	0.140	0.002	
24.635	-0.155	0.013	
24.640	-0.052	0.006	
24.645	0.247	0.001	
24.650	-0.083	0.015	
24.655	-0.115	0.017	
24.660	0.253	0.013	
24.665	0.020	0.027	
24.670	-0.147	0.036	
24.675	0.146	0.028	
24.680	0.189	0.034	
24.685	-0.127	0.049	
24.690	0.007	0.045	
24.695	0.299	0.043	
24.700	-0.045	0.060	
24.705	-0.098	0.063	
24.710	0.258	0.053	
24.715	0.052	0.060	
24.720	-0.155	0.062	
24.725	0.044	0.042	
24.730	0.090	0.025	
24.735	-0.213	0.013	
24.740	-0.112	-0.016	
24.745	0.133	-0.042	
24.750	-0.162	-0.047	
24.755	-0.182	-0.058	
24.760	0.133	-0.071	
24.765	-0.032	-0.062	
24.770	-0.197	-0.052	
24.775	0.027	-0.056	
24.780	0.093	-0.050	
24.785	-0.185	-0.036	
24.790	-0.098	-0.040	
24.795	0.162	-0.045	
24.800	-0.110	-0.034	
24.805	-0.084	-0.028	
24.810	0.414	-0.014	
24.815	0.295	0.043	
24.820	0.015	0.110	
24.825	0.273	0.151	
24.830	0.214	0.178	
24.835	-0.173	0.183	
24.840	-0.084	0.142	
24.845	0.186	0.088	
24.850	-0.142	0.052	
24.855	-0.155	0.013	
24.860	0.194	-0.020	
24.865	-0.014	-0.023	
24.870	-0.185	-0.021	
24.875	0.097	-0.029	
24.880	0.137	-0.021	
24.885	-0.153	-0.003	
24.890	-0.023	-0.003	
24.895	0.249	0.000	
24.900	-0.080	0.020	
24.905	-0.107	0.025	
24.910	0.253	0.021	
24.915	0.055	0.036	
24.920	-0.133	0.048	
24.925	0.154	0.042	
24.930	0.165	0.047	
24.935	-0.152	0.056	
24.940	-0.037	0.042	
24.945	0.252	0.029	
24.950	-0.078	0.035	
24.955	-0.110	0.031	
24.960	0.256	0.021	
24.965	0.059	0.034	
24.970	-0.133	0.045	
24.975	0.162	0.040	
24.980	0.235	0.050	
24.985	-0.115	0.069	
24.990	0.020	0.067	
24.995	0.319	0.065	
25.000	-0.066	0.079	
25.005	-0.104	0.075	
25.010	0.284	0.060	
25.015	0.067	0.066	
25.020	-0.133	0.070	
25.025	0.180	0.058	
25.030	0.243	0.063	
25.035	-0.113	0.079	
25.040	0.029	0.075	
25.045	0.278	0.069	
25.050	-0.055	0.078	
25.055	-0.083	0.072	
25.060	0.292	0.059	
25.065	0.091	0.069	
25.070	-0.122	0.077	
25.075	0.122	0.066	
25.080	0.177	0.062	
25.085	-0.130	0.064	
25.090	-0.026	0.049	
25.095	0.246	0.035	
25.100	-0.080	0.039	
25.105	-0.112	0.033	
25.110	0.218	0.020	
25.115	0.042	0.027	
25.120	-0.144	0.033	
25.125	0.125	0.024	
25.130	0.188	0.029	
25.135	-0.141	0.042	
25.140	-0.013	0.036	
25.145	0.275	0.032	
25.150	-0.063	0.045	
25.155	-0.075	0.047	
25.160	0.288	0.043	
25.165	0.046	0.058	
25.170	-0.141	0.066	
25.175	0.122	0.052	
25.180	0.168	0.048	
25.185	-0.148	0.052	
25.190	-0.068	0.035	
25.195	0.171	0.015	
25.200	-0.155	0.008	
25.205	-0.170	-0.011	
25.210	0.110	-0.036	
25.215	-0.063	-0.043	
25.220	-0.219	-0.049	
25.225	0.012	-0.065	
25.230	0.041	-0.068	
25.235	-0.217	-0.063	
25.240	-0.098	-0.071	
25.245	0.136	-0.075	
25.250	-0.150	-0.062	
25.255	-0.182	-0.060	
25.260	0.117	-0.066	
25.265	-0.064	-0.058	
25.270	-0.203	-0.053	
25.275	0.107	-0.057	
25.280	0.238	-0.038	
25.285	-0.042	0.004	
25.290	0.172	0.039	
25.295	0.402	0.081	
25.300	-0.068	0.129	
25.305	-0.165	0.133	
25.310	0.078	0.096	
25.315	-0.101	0.055	
25.320	-0.234	0.008	
25.325	0.009	-0.042	
25.330	0.073	-0.066	
25.335	-0.197	-0.067	
25.340	-0.074	-0.074	
25.345	0.143	-0.073	
25.350	-0.148	-0.056	
25.355	-0.148	-0.051	
25.360	0.134	-0.054	
25.365	-0.025	-0.041	
25.370	-0.190	-0.032	
25.375	0.062	-0.037	
25.380	0.087	-0.032	
25.385	-0.165	-0.020	
25.390	-0.049	-0.024	
25.395	0.235	-0.023	
25.400	-0.098	-0.003	
25.405	-0.136	0.002	
25.410	0.192	-0.003	
25.415	0.003	0.006	
25.420	-0.159	0.011	
25.425	0.096	0.002	
25.430	0.183	0.007	
25.435	-0.153	0.022	
25.440	-0.006	0.020	
25.445	0.292	0.021	
25.450	-0.063	0.041	
25.455	-0.087	0.047	
25.460	0.293	0.044	
25.465	0.064	0.060	
25.470	-0.133	0.070	
25.475	0.185	0.062	
25.480	0.183	0.065	
25.485	-0.145	0.074	
25.490	-0.022	0.058	
25.495	0.240	0.042	
25.500	-0.100	0.043	
25.505	-0.112	0.032	
25.510	0.241	0.017	
25.515	0.017	0.024	
25.520	-0.174	0.028	
25.525	0.088	0.013	
25.530	0.122	0.010	
25.535	-0.179	0.013	
25.540	-0.045	-0.001	
25.545	0.185	-0.011	
25.550	-0.119	-0.005	
25.555	-0.130	-0.009	
25.560	0.229	-0.017	
25.565	0.041	-0.000	
25.570	-0.159	0.015	
25.575	0.113	0.012	
25.580	0.165	0.019	
25.585	-0.168	0.032	
25.590	-0.060	0.021	
25.595	0.212	0.009	
25.600	-0.097	0.013	
25.605	-0.112	0.009	
25.610	0.227	0.001	
25.615	0.044	0.014	
25.620	-0.133	0.027	
25.625	0.169	0.026	
25.630	0.214	0.040	
25.635	-0.115	0.061	
25.640	0.041	0.062	
25.645	0.337	0.065	
25.650	-0.064	0.084	
25.655	-0.089	0.084	
25.660	0.267	0.069	
25.665	0.038	0.072	
25.670	-0.174	0.067	
25.675	0.072	0.042	
25.680	0.119	0.026	
25.685	-0.193	0.018	
25.690	-0.081	-0.005	
25.695	0.152	-0.025	
25.700	-0.130	-0.025	
25.705	-0.159	-0.034	
25.710	0.151	-0.045	
25.715	0.000	-0.036	
25.720	-0.202	-0.027	
25.725	0.047	-0.034	
25.730	0.134	-0.030	
25.735	-0.176	-0.016	
25.740	-0.057	-0.019	
25.745	0.172	-0.022	
25.750	-0.097	-0.011	
25.755	-0.064	-0.007	
25.760	0.386	0.003	
25.765	0.304	0.055	
25.770	0.015	0.116	
25.775	0.281	0.153	
25.780	0.223	0.180	
25.785	-0.171	0.186	
25.790	-0.101	0.144	
25.795	0.108	0.085	
25.800	-0.148	0.038	
25.805	-0.158	-0.008	
25.810	0.114	-0.045	
25.815	-0.028	-0.053	
25.820	-0.179	-0.053	
25.825	0.073	-0.057	
25.830	0.122	-0.045	
25.835	-0.173	-0.024	
25.840	-0.066	-0.022	
25.845	0.171	-0.024	
25.850	-0.132	-0.013	
25.855	-0.150	-0.017	
25.860	0.194	-0.027	
25.865	-0.025	-0.017	
25.870	-0.177	-0.010	
25.875	0.093	-0.018	
25.880	0.087	-0.015	
25.885	-0.182	-0.006	
25.890	-0.040	-0.016	
25.895	0.247	-0.018	
25.900	-0.078	0.002	
25.905	-0.087	0.011	
25.910	0.259	0.014	
25.915	0.087	0.037	
25.920	-0.109	0.056	
25.925	0.185	0.058	
25.930	0.256	0.072	
25.935	-0.107	0.093	
25.940	0.017	0.089	
25.945	0.327	0.082	
25.950	-0.032	0.093	
25.955	-0.060	0.090	
25.960	0.310	0.080	
25.965	0.119	0.091	
25.970	-0.118	0.100	
25.975	0.137	0.087	
25.980	0.191	0.080	
25.985	-0.145	0.079	
25.990	-0.034	0.058	
25.995	0.244	0.038	
26.000	-0.075	0.039	
26.005	-0.116	0.031	
26.010	0.220	0.017	
26.015	0.029	0.024	
26.020	-0.147	0.028	
26.025	0.133	0.019	
26.030	0.186	0.025	
26.035	-0.155	0.040	
26.040	-0.029	0.033	
26.045	0.230	0.024	
26.050	-0.098	0.030	
26.055	-0.127	0.024	
26.060	0.194	0.009	
26.065	0.015	0.013	
26.070	-0.136	0.016	
26.075	0.116	0.008	
26.080	0.185	0.016	
26.085	-0.127	0.033	
26.090	0.010	0.033	
26.095	0.307	0.036	
26.100	-0.045	0.057	
26.105	-0.054	0.065	
26.110	0.304	0.064	
26.115	0.105	0.082	
26.120	-0.113	0.094	
26.125	0.178	0.085	
26.130	0.227	0.087	
26.135	-0.136	0.095	
26.140	-0.023	0.078	
26.145	0.188	0.055	
26.150	-0.122	0.045	
26.155	-0.156	0.021	
26.160	0.162	-0.007	
26.165	-0.016	-0.012	
26.170	-0.170	-0.014	
26.175	0.073	-0.026	
26.180	0.117	-0.023	
26.185	-0.171	-0.010	
26.190	-0.032	-0.014	
26.195	0.230	-0.014	
26.200	-0.100	0.004	
26.205	-0.127	0.008	
26.210	0.226	0.002	
26.215	0.023	0.015	
26.220	-0.141	0.025	
26.225	0.217	0.023	
26.230	0.362	0.048	
26.235	0.039	0.097	
26.240	0.183	0.132	
26.245	0.438	0.163	
26.250	-0.045	0.196	
26.255	-0.124	0.186	
26.260	0.172	0.141	
26.265	-0.026	0.102	
26.270	-0.193	0.061	
26.275	0.081	0.014	
26.280	0.181	-0.005	
26.285	-0.145	0.001	
26.290	-0.026	-0.003	
26.295	0.256	-0.002	
26.300	-0.068	0.019	
26.305	-0.124	0.025	
26.310	0.171	0.017	
26.315	0.012	0.020	
26.320	-0.144	0.021	
26.325	0.127	0.010	
26.330	0.208	0.018	
26.335	-0.113	0.038	
26.340	0.007	0.040	
26.345	0.256	0.041	
26.350	-0.071	0.055	
26.355	-0.097	0.052	
26.360	0.266	0.042	
26.365	0.082	0.052	
26.370	-0.107	0.063	
26.375	0.146	0.057	
26.380	0.235	0.063	
26.385	-0.129	0.077	
26.390	-0.025	0.067	
26.395	0.296	0.056	
26.400	-0.046	0.064	
26.405	-0.083	0.061	
26.410	0.267	0.052	
26.415	0.064	0.061	
26.420	-0.145	0.066	
26.425	0.134	0.052	
26.430	0.212	0.051	
26.435	-0.139	0.060	
26.440	-0.038	0.049	
26.445	0.249	0.036	
26.450	-0.084	0.040	
26.455	-0.121	0.033	
26.460	0.206	0.018	
26.465	0.027	0.022	
26.470	-0.150	0.025	
26.475	0.094	0.013	
26.480	0.156	0.014	
26.485	-0.162	0.023	
26.490	-0.058	0.013	
26.495	0.206	0.002	
26.500	-0.100	0.008	
26.505	-0.133	0.004	
26.510	0.188	-0.007	
26.515	-0.009	-0.001	
26.520	-0.208	0.001	
26.525	0.049	-0.016	
26.530	0.108	-0.021	
26.535	-0.181	-0.016	
26.540	-0.048	-0.025	
26.545	0.238	-0.026	
26.550	-0.071	-0.005	
26.555	-0.107	0.005	
26.560	0.229	0.007	
26.565	0.032	0.024	
26.570	-0.144	0.035	
26.575	0.087	0.026	
26.580	0.143	0.025	
26.585	-0.168	0.029	
26.590	-0.058	0.014	
26.595	0.215	0.001	
26.600	-0.138	0.005	
26.605	-0.177	-0.005	
26.610	0.127	-0.026	
26.615	-0.040	-0.030	
26.620	-0.210	-0.034	
26.625	-0.022	-0.051	
26.630	0.046	-0.060	
26.635	-0.216	-0.060	
26.640	-0.104	-0.072	
26.645	0.133	-0.078	
26.650	-0.155	-0.066	
26.655	-0.168	-0.064	
26.660	0.146	-0.067	
26.665	-0.025	-0.052	
26.670	-0.205	-0.039	
26.675	0.007	-0.046	
26.680	0.091	-0.045	
26.685	-0.170	-0.036	
26.690	-0.042	-0.038	
26.695	0.302	-0.029	
26.700	0.026	0.007	
26.705	-0.048	0.038	
26.710	0.204	0.052	
26.715	-0.037	0.065	
26.720	-0.245	0.054	
26.725	-0.078	0.010	
26.730	-0.028	-0.033	
26.735	-0.245	-0.065	
26.740	-0.118	-0.098	
26.745	0.088	-0.115	
26.750	-0.162	-0.106	
26.755	-0.188	-0.102	
26.760	0.130	-0.100	
26.765	-0.054	-0.080	
26.770	-0.226	-0.065	
26.775	0.000	-0.069	
26.780	0.062	-0.065	
26.785	-0.214	-0.056	
26.790	-0.110	-0.063	
26.795	0.104	-0.070	
26.800	-0.162	-0.064	
26.805	-0.174	-0.067	
26.810	0.136	-0.074	
26.815	-0.023	-0.060	
26.820	-0.203	-0.047	
26.825	0.023	-0.051	
26.830	0.079	-0.047	
26.835	-0.200	-0.038	
26.840	-0.086	-0.045	
26.845	0.146	-0.050	
26.850	-0.122	-0.040	
26.855	-0.148	-0.039	
26.860	0.174	-0.042	
26.865	-0.035	-0.029	
26.870	-0.196	-0.021	
26.875	0.047	-0.031	
26.880	0.082	-0.031	
26.885	-0.190	-0.024	
26.890	-0.092	-0.034	
26.895	0.166	-0.043	
26.900	-0.147	-0.035	
26.905	-0.187	-0.039	
26.910	0.104	-0.053	
26.915	-0.051	-0.051	
26.920	-0.240	-0.052	
26.925	-0.028	-0.069	
26.930	0.030	-0.076	
26.935	-0.228	-0.075	
26.940	-0.132	-0.086	
26.945	0.072	-0.095	
26.950	-0.188	-0.090	
26.955	-0.217	-0.095	
26.960	0.055	-0.106	
26.965	-0.071	-0.100	
26.970	-0.228	-0.093	
26.975	-0.019	-0.098	
26.980	0.036	-0.093	
26.985	-0.225	-0.081	
26.990	-0.122	-0.085	
26.995	0.053	-0.090	
27.000	-0.179	-0.085	
27.005	-0.188	-0.090	
27.010	0.117	-0.096	
27.015	-0.051	-0.081	
27.020	-0.202	-0.068	
27.025	0.044	-0.067	
27.030	0.104	-0.055	
27.035	-0.190	-0.036	
27.040	-0.069	-0.036	
27.045	0.181	-0.036	
27.050	-0.127	-0.022	
27.055	-0.162	-0.022	
27.060	0.142	-0.032	
27.065	-0.060	-0.028	
27.070	-0.222	-0.030	
27.075	0.000	-0.049	
27.080	0.042	-0.057	
27.085	-0.205	-0.057	
27.090	-0.118	-0.068	
27.095	0.105	-0.077	
27.100	-0.162	-0.070	
27.105	-0.177	-0.072	
27.110	0.104	-0.079	
27.115	-0.072	-0.070	
27.120	-0.222	-0.064	
27.125	0.007	-0.073	
27.130	0.056	-0.071	
27.135	-0.213	-0.061	
27.140	-0.113	-0.067	
27.145	0.084	-0.074	
27.150	-0.162	-0.069	
27.155	-0.148	-0.072	
27.160	0.269	-0.068	
27.165	0.152	-0.029	
27.170	-0.063	0.019	
27.175	0.188	0.049	
27.180	0.090	0.073	
27.185	-0.240	0.078	
27.190	-0.161	0.040	
27.195	0.035	-0.010	
27.200	-0.194	-0.046	
27.205	-0.197	-0.081	
27.210	0.125	-0.104	
27.215	-0.022	-0.095	
27.220	-0.182	-0.078	
27.225	0.053	-0.070	
27.230	0.111	-0.052	
27.235	-0.173	-0.029	
27.240	-0.057	-0.025	
27.245	0.211	-0.022	
27.250	-0.103	-0.005	
27.255	-0.124	-0.001	
27.260	0.212	-0.005	
27.265	0.007	0.008	
27.270	-0.164	0.016	
27.275	0.090	0.006	
27.280	0.172	0.009	
27.285	-0.167	0.021	
27.290	-0.072	0.012	
27.295	0.203	0.001	
27.300	-0.104	0.006	
27.305	-0.130	0.001	
27.310	0.197	-0.010	
27.315	0.026	0.000	
27.320	-0.150	0.010	
27.325	0.116	0.005	
27.330	0.177	0.014	
27.335	-0.141	0.031	
27.340	-0.017	0.028	
27.345	0.241	0.024	
27.350	-0.090	0.035	
27.355	-0.115	0.032	
27.360	0.238	0.020	
27.365	0.039	0.029	
27.370	-0.145	0.036	
27.375	0.101	0.026	
27.380	0.139	0.025	
27.385	-0.177	0.029	
27.390	-0.045	0.014	
27.395	0.220	0.002	
27.400	-0.118	0.008	
27.405	-0.144	0.002	
27.410	0.188	-0.011	
27.415	-0.019	-0.006	
27.420	-0.190	-0.004	
27.425	0.076	-0.017	
27.430	0.122	-0.017	
27.435	-0.174	-0.007	
27.440	-0.051	-0.013	
27.445	0.220	-0.017	
27.450	-0.087	-0.001	
27.455	-0.095	0.004	
27.460	0.266	0.005	
27.465	0.058	0.028	
27.470	-0.147	0.045	
27.475	0.142	0.040	
27.480	0.192	0.046	
27.485	-0.139	0.058	
27.490	-0.003	0.049	
27.495	0.279	0.042	
27.500	-0.058	0.053	
27.505	-0.083	0.053	
27.510	0.267	0.045	
27.515	0.076	0.057	
27.520	-0.126	0.066	
27.525	0.163	0.058	
27.530	0.192	0.061	
27.535	-0.144	0.070	
27.540	-0.032	0.056	
27.545	0.162	0.036	
27.550	-0.142	0.027	
27.555	-0.156	0.004	
27.560	0.136	-0.022	
27.565	-0.042	-0.028	
27.570	-0.197	-0.032	
27.575	0.046	-0.046	
27.580	0.065	-0.047	
27.585	-0.197	-0.039	
27.590	-0.097	-0.048	
27.595	0.124	-0.056	
27.600	-0.167	-0.050	
27.605	-0.165	-0.055	
27.610	0.151	-0.064	
27.615	-0.032	-0.051	
27.620	-0.196	-0.041	
27.625	0.020	-0.047	
27.630	0.075	-0.045	
27.635	-0.155	-0.035	
27.640	0.065	-0.031	
27.645	0.469	-0.003	
27.650	0.127	0.063	
27.655	0.032	0.119	
27.660	0.322	0.148	
27.665	0.026	0.167	
27.670	-0.187	0.155	
27.675	0.041	0.106	
27.680	0.099	0.062	
27.685	-0.156	0.033	
27.690	-0.014	0.002	
27.695	0.249	-0.011	
27.700	-0.103	0.003	
27.705	-0.106	0.006	
27.710	0.238	0.003	
27.715	0.035	0.020	
27.720	-0.148	0.032	
27.725	0.133	0.026	
27.730	0.181	0.032	
27.735	-0.129	0.046	
27.740	-0.002	0.041	
27.745	0.253	0.036	
27.750	-0.074	0.047	
27.755	-0.075	0.045	
27.760	0.224	0.036	
27.765	0.007	0.042	
27.770	-0.130	0.043	
27.775	0.172	0.031	
27.780	0.223	0.040	
27.785	-0.113	0.060	
27.790	0.032	0.060	
27.795	0.293	0.060	
27.800	-0.043	0.076	
27.805	-0.051	0.077	
27.810	0.305	0.070	
27.815	0.093	0.084	
27.820	-0.095	0.094	
27.825	0.211	0.087	
27.830	0.270	0.094	
27.835	-0.110	0.110	
27.840	0.033	0.102	
27.845	0.324	0.092	
27.850	-0.078	0.098	
27.855	-0.103	0.085	
27.860	0.250	0.062	
27.865	0.053	0.060	
27.870	-0.145	0.058	
27.875	0.111	0.040	
27.880	0.151	0.034	
27.885	-0.152	0.037	
27.890	-0.031	0.024	
27.895	0.233	0.013	
27.900	-0.084	0.022	
27.905	-0.090	0.021	
27.910	0.261	0.017	
27.915	0.056	0.034	
27.920	-0.142	0.047	
27.925	0.130	0.040	
27.930	0.183	0.043	
27.935	-0.124	0.054	
27.940	-0.022	0.045	
27.945	0.192	0.034	
27.950	-0.095	0.034	
27.955	-0.087	0.024	
27.960	0.259	0.014	
27.965	0.073	0.030	
27.970	-0.113	0.046	
27.975	0.206	0.048	
27.980	0.227	0.064	
27.985	-0.115	0.085	
27.990	0.033	0.081	
27.995	0.311	0.077	
28.000	-0.032	0.089	
28.005	-0.061	0.087	
28.010	0.264	0.075	
28.015	0.049	0.079	
28.020	-0.142	0.077	
28.025	0.090	0.055	
28.030	0.122	0.041	
28.035	-0.174	0.034	
28.040	-0.078	0.010	
28.045	0.143	-0.012	
28.050	-0.126	-0.017	
28.055	-0.139	-0.028	
28.060	0.180	-0.038	
28.065	-0.016	-0.027	
28.070	-0.177	-0.018	
28.075	0.070	-0.024	
28.080	0.116	-0.019	
28.085	-0.173	-0.007	
28.090	-0.049	-0.013	
28.095	0.191	-0.017	
28.100	-0.133	-0.007	
28.105	-0.118	-0.009	
28.110	0.270	-0.013	
28.115	0.125	0.012	
28.120	-0.022	0.046	
28.125	0.377	0.075	
28.130	0.337	0.125	
28.135	-0.119	0.169	
28.140	-0.040	0.163	
28.145	0.117	0.126	
28.150	-0.164	0.086	
28.155	-0.159	0.033	
28.160	0.143	-0.014	
28.165	-0.049	-0.032	
28.170	-0.177	-0.040	
28.175	0.084	-0.052	
28.180	0.125	-0.043	
28.185	-0.158	-0.022	
28.190	-0.026	-0.018	
28.195	0.192	-0.013	
28.200	-0.103	0.003	
28.205	-0.115	0.005	
28.210	0.221	-0.000	
28.215	0.038	0.014	
28.220	-0.138	0.026	
28.225	0.142	0.022	
28.230	0.177	0.032	
28.235	-0.132	0.047	
28.240	-0.003	0.042	
28.245	0.258	0.037	
28.250	-0.064	0.049	
28.255	-0.083	0.047	
28.260	0.261	0.039	
28.265	0.050	0.051	
28.270	-0.119	0.058	
28.275	0.191	0.051	
28.280	0.226	0.061	
28.285	-0.101	0.079	
28.290	0.044	0.077	
28.295	0.287	0.074	
28.300	-0.058	0.085	
28.305	-0.066	0.079	
28.310	0.258	0.065	
28.315	0.062	0.070	
28.320	-0.116	0.071	
28.325	0.169	0.059	
28.330	0.197	0.061	
28.335	-0.141	0.071	
28.340	-0.006	0.058	
28.345	0.253	0.046	
28.350	-0.084	0.050	
28.355	-0.089	0.043	
28.360	0.246	0.031	
28.365	0.026	0.039	
28.370	-0.153	0.042	
28.375	0.107	0.028	
28.380	0.151	0.026	
28.385	-0.158	0.031	
28.390	-0.049	0.019	
28.395	0.200	0.006	
28.400	-0.097	0.011	
28.405	-0.115	0.006	
28.410	0.203	-0.003	
28.415	0.015	0.007	
28.420	-0.148	0.015	
28.425	0.130	0.009	
28.430	0.174	0.017	
28.435	-0.116	0.035	
28.440	0.023	0.036	
28.445	0.285	0.039	
28.450	-0.038	0.059	
28.455	-0.022	0.067	
28.460	0.328	0.070	
28.465	0.107	0.092	
28.470	-0.093	0.107	
28.475	0.181	0.099	
28.480	0.206	0.099	
28.485	-0.133	0.102	
28.490	-0.025	0.081	
28.495	0.227	0.057	
28.500	-0.086	0.051	
28.505	-0.122	0.036	
28.510	0.172	0.014	
28.515	-0.023	0.010	
28.520	-0.167	0.004	
28.525	0.062	-0.013	
28.530	0.105	-0.016	
28.535	-0.167	-0.010	
28.540	-0.025	-0.017	
28.545	0.211	-0.017	
28.550	-0.113	-0.001	
28.555	-0.132	0.000	
28.560	0.146	-0.010	
28.565	-0.020	-0.007	
28.570	-0.168	-0.007	
28.575	0.169	-0.014	
28.580	0.267	0.005	
28.585	-0.025	0.045	
28.590	0.194	0.075	
28.595	0.372	0.110	
28.600	-0.061	0.147	
28.605	-0.115	0.145	
28.610	0.125	0.109	
28.615	-0.071	0.074	
28.620	-0.217	0.033	
28.625	0.041	-0.015	
28.630	0.102	-0.037	
28.635	-0.176	-0.038	
28.640	-0.055	-0.046	
28.645	0.152	-0.047	
28.650	-0.124	-0.033	
28.655	-0.126	-0.031	
28.660	0.211	-0.031	
28.665	-0.005	-0.012	
28.670	-0.153	0.001	
28.675	0.111	-0.001	
28.680	0.152	0.008	
28.685	-0.142	0.024	
28.690	-0.029	0.019	
28.695	0.227	0.015	
28.700	-0.098	0.025	
28.705	-0.092	0.023	
28.710	0.253	0.016	
28.715	0.038	0.031	
28.720	-0.144	0.041	
28.725	0.156	0.034	
28.730	0.204	0.041	
28.735	-0.141	0.057	
28.740	0.001	0.051	
28.745	0.276	0.045	
28.750	-0.049	0.057	
28.755	-0.075	0.057	
28.760	0.299	0.051	
28.765	0.097	0.067	
28.770	-0.107	0.081	
28.775	0.183	0.076	
28.780	0.224	0.081	
28.785	-0.100	0.094	
28.790	0.013	0.084	
28.795	0.249	0.072	
28.800	-0.078	0.073	
28.805	-0.097	0.060	
28.810	0.276	0.042	
28.815	0.059	0.050	
28.820	-0.122	0.057	
28.825	0.156	0.048	
28.830	0.157	0.051	
28.835	-0.152	0.058	
28.840	-0.013	0.043	
28.845	0.232	0.031	
28.850	-0.090	0.035	
28.855	-0.100	0.029	
28.860	0.226	0.017	
28.865	0.013	0.026	
28.870	-0.129	0.030	
28.875	0.114	0.021	
28.880	0.116	0.023	
28.885	-0.158	0.028	
28.890	-0.035	0.015	
28.895	0.247	0.006	
28.900	-0.049	0.020	
28.905	-0.064	0.027	
28.910	0.308	0.031	
28.915	0.085	0.057	
28.920	-0.098	0.077	
28.925	0.177	0.075	
28.930	0.221	0.083	
28.935	-0.097	0.095	
28.940	0.033	0.087	
28.945	0.288	0.078	
28.950	-0.068	0.085	
28.955	-0.095	0.075	
28.960	0.218	0.055	
28.965	0.021	0.051	
28.970	-0.165	0.044	
28.975	0.078	0.022	
28.980	0.090	0.011	
28.985	-0.179	0.007	
28.990	-0.052	-0.011	
28.995	0.163	-0.023	
29.000	-0.126	-0.018	
29.005	-0.130	-0.023	
29.010	0.192	-0.029	
29.015	-0.029	-0.017	
29.020	-0.185	-0.010	
29.025	0.052	-0.021	
29.030	0.110	-0.021	
29.035	-0.193	-0.014	
29.040	-0.045	-0.022	
29.045	0.288	-0.022	
29.050	0.000	0.007	
29.055	0.070	0.036	
29.060	0.495	0.073	
29.065	0.165	0.134	
29.070	-0.133	0.172	
29.075	0.027	0.155	
29.080	0.038	0.116	
29.085	-0.216	0.070	
29.090	-0.080	0.013	
29.095	0.166	-0.027	
29.100	-0.127	-0.036	
29.105	-0.150	-0.045	
29.110	0.151	-0.054	
29.115	-0.013	-0.042	
29.120	-0.156	-0.029	
29.125	0.093	-0.029	
29.130	0.168	-0.014	
29.135	-0.135	0.009	
29.140	-0.017	0.014	
29.145	0.240	0.017	
29.150	-0.078	0.033	
29.155	-0.092	0.034	
29.160	0.249	0.028	
