Vernier Format 2
ecg3.txt 10/19/2025 10:54:13
Run 1
Time	Potential	EKG	
T	P	E	
s	mV	mV	

0.000	0.218	0.010	
0.005	-0.260	0.021	
0.010	0.001	0.009	
0.015	0.397	0.008	
0.020	-0.164	0.035	
0.025	-0.139	0.038	
0.030	0.414	0.032	
0.035	-0.032	0.053	
0.040	-0.274	0.057	
0.045	0.136	0.028	
0.050	0.087	0.012	
0.055	-0.333	0.001	
0.060	-0.133	-0.037	
0.065	0.198	-0.068	
0.070	-0.254	-0.070	
0.075	-0.246	-0.084	
0.080	0.241	-0.098	
0.085	-0.097	-0.081	
0.090	-0.287	-0.069	
0.095	0.124	-0.075	
0.100	0.124	-0.061	
0.105	-0.281	-0.038	
0.110	-0.037	-0.042	
0.115	0.328	-0.037	
0.120	-0.194	-0.009	
0.125	-0.173	-0.004	
0.130	0.380	-0.008	
0.135	-0.016	0.018	
0.140	-0.242	0.032	
0.145	0.215	0.020	
0.150	0.204	0.029	
0.155	-0.275	0.044	
0.160	-0.057	0.024	
0.165	0.310	0.007	
0.170	-0.220	0.013	
0.175	-0.203	-0.002	
0.180	0.281	-0.025	
0.185	-0.048	-0.017	
0.190	-0.228	-0.012	
0.195	0.270	-0.018	
0.200	0.276	0.009	
0.205	-0.229	0.048	
0.210	-0.003	0.050	
0.215	0.438	0.051	
0.220	-0.106	0.078	
0.225	-0.049	0.084	
0.230	0.638	0.092	
0.235	0.174	0.144	
0.240	-0.190	0.179	
0.245	0.204	0.164	
0.250	0.127	0.142	
0.255	-0.324	0.111	
0.260	-0.077	0.048	
0.265	0.327	0.001	
0.270	-0.181	-0.004	
0.275	-0.203	-0.017	
0.280	0.340	-0.031	
0.285	-0.022	-0.012	
0.290	-0.266	0.002	
0.295	0.201	-0.008	
0.300	0.220	0.005	
0.305	-0.251	0.028	
0.310	-0.016	0.021	
0.315	0.412	0.019	
0.320	-0.150	0.045	
0.325	-0.148	0.048	
0.330	0.429	0.040	
0.335	0.052	0.064	
0.340	-0.200	0.079	
0.345	0.311	0.070	
0.350	0.366	0.089	
0.355	-0.193	0.121	
0.360	0.061	0.117	
0.365	0.528	0.114	
0.370	-0.080	0.140	
0.375	-0.112	0.138	
0.380	0.490	0.121	
0.385	0.105	0.135	
0.390	-0.187	0.140	
0.395	0.288	0.118	
0.400	0.311	0.118	
0.405	-0.202	0.129	
0.410	0.042	0.108	
0.415	0.472	0.094	
0.420	-0.121	0.110	
0.425	-0.142	0.101	
0.430	0.415	0.079	
0.435	0.030	0.087	
0.440	-0.220	0.086	
0.445	0.226	0.061	
0.450	0.263	0.061	
0.455	-0.234	0.073	
0.460	-0.005	0.056	
0.465	0.437	0.046	
0.470	-0.152	0.066	
0.475	-0.150	0.063	
0.480	0.455	0.050	
0.485	0.097	0.074	
0.490	-0.200	0.093	
0.495	0.279	0.084	
0.500	0.302	0.094	
0.505	-0.220	0.113	
0.510	-0.014	0.094	
0.515	0.368	0.073	
0.520	-0.168	0.075	
0.525	-0.167	0.055	
0.530	0.313	0.027	
0.535	-0.040	0.027	
0.540	-0.287	0.020	
0.545	0.097	-0.011	
0.550	0.134	-0.023	
0.555	-0.300	-0.021	
0.560	-0.119	-0.043	
0.565	0.247	-0.060	
0.570	-0.225	-0.050	
0.575	-0.231	-0.056	
0.580	0.256	-0.068	
0.585	-0.066	-0.052	
0.590	-0.286	-0.042	
0.595	0.197	-0.049	
0.600	0.368	-0.022	
0.605	-0.141	0.032	
0.610	0.065	0.060	
0.615	0.412	0.081	
0.620	-0.181	0.109	
0.625	-0.225	0.095	
0.630	0.249	0.053	
0.635	-0.051	0.032	
0.640	-0.294	0.010	
0.645	0.105	-0.028	
0.650	0.186	-0.036	
0.655	-0.277	-0.025	
0.660	-0.084	-0.035	
0.665	0.339	-0.039	
0.670	-0.181	-0.014	
0.675	-0.200	-0.010	
0.680	0.330	-0.018	
0.685	0.006	0.003	
0.690	-0.254	0.017	
0.695	0.168	0.005	
0.700	0.241	0.013	
0.705	-0.258	0.033	
0.710	-0.055	0.021	
0.715	0.405	0.013	
0.720	-0.129	0.036	
0.725	-0.155	0.040	
0.730	0.429	0.034	
0.735	0.068	0.061	
0.740	-0.228	0.078	
0.745	0.249	0.066	
0.750	0.328	0.075	
0.755	-0.219	0.098	
0.760	-0.020	0.085	
0.765	0.432	0.071	
0.770	-0.124	0.084	
0.775	-0.136	0.077	
0.780	0.409	0.060	
0.785	0.047	0.074	
0.790	-0.234	0.080	
0.795	0.220	0.059	
0.800	0.285	0.060	
0.805	-0.237	0.075	
0.810	-0.068	0.057	
0.815	0.339	0.036	
0.820	-0.156	0.040	
0.825	-0.194	0.027	
0.830	0.365	0.007	
0.835	0.026	0.022	
0.840	-0.262	0.032	
0.845	0.157	0.016	
0.850	0.255	0.019	
0.855	-0.249	0.036	
0.860	-0.054	0.024	
0.865	0.435	0.018	
0.870	-0.119	0.043	
0.875	-0.167	0.049	
0.880	0.405	0.041	
0.885	0.067	0.062	
0.890	-0.246	0.074	
0.895	0.117	0.053	
0.900	0.191	0.040	
0.905	-0.291	0.037	
0.910	-0.122	0.004	
0.915	0.269	-0.025	
0.920	-0.202	-0.025	
0.925	-0.237	-0.037	
0.930	0.267	-0.055	
0.935	-0.035	-0.042	
0.940	-0.281	-0.032	
0.945	0.082	-0.044	
0.950	0.166	-0.040	
0.955	-0.283	-0.025	
0.960	-0.135	-0.037	
0.965	0.253	-0.050	
0.970	-0.173	-0.038	
0.975	-0.179	-0.038	
0.980	0.490	-0.032	
0.985	0.302	0.027	
0.990	-0.106	0.097	
0.995	0.328	0.133	
1.000	0.324	0.166	
1.005	-0.262	0.185	
1.010	-0.118	0.145	
1.015	0.307	0.090	
1.020	-0.185	0.061	
1.025	-0.239	0.021	
1.030	0.278	-0.020	
1.035	-0.011	-0.022	
1.040	-0.310	-0.022	
1.045	0.096	-0.042	
1.050	0.221	-0.040	
1.055	-0.275	-0.019	
1.060	-0.098	-0.025	
1.065	0.377	-0.028	
1.070	-0.127	0.000	
1.075	-0.174	0.012	
1.080	0.423	0.013	
1.085	0.146	0.049	
1.090	-0.207	0.081	
1.095	0.232	0.080	
1.100	0.372	0.094	
1.105	-0.193	0.120	
1.110	-0.023	0.109	
1.115	0.476	0.094	
1.120	-0.080	0.109	
1.125	-0.136	0.104	
1.130	0.405	0.085	
1.135	0.124	0.097	
1.140	-0.211	0.105	
1.145	0.233	0.087	
1.150	0.351	0.090	
1.155	-0.194	0.109	
1.160	-0.045	0.094	
1.165	0.424	0.076	
1.170	-0.118	0.085	
1.175	-0.179	0.074	
1.180	0.357	0.050	
1.185	0.082	0.057	
1.190	-0.236	0.063	
1.195	0.189	0.045	
1.200	0.322	0.050	
1.205	-0.229	0.071	
1.210	-0.075	0.058	
1.215	0.411	0.043	
1.220	-0.115	0.056	
1.225	-0.181	0.053	
1.230	0.431	0.039	
1.235	0.124	0.062	
1.240	-0.217	0.083	
1.245	0.250	0.076	
1.250	0.431	0.091	
1.255	-0.185	0.124	
1.260	-0.048	0.118	
1.265	0.469	0.102	
1.270	-0.107	0.112	
1.275	-0.185	0.099	
1.280	0.339	0.068	
1.285	0.039	0.065	
1.290	-0.292	0.057	
1.295	0.058	0.020	
1.300	0.209	-0.000	
1.305	-0.274	-0.001	
1.310	-0.132	-0.023	
1.315	0.330	-0.039	
1.320	-0.174	-0.023	
1.325	-0.254	-0.024	
1.330	0.273	-0.039	
1.335	0.006	-0.025	
1.340	-0.306	-0.015	
1.345	0.044	-0.033	
1.350	0.197	-0.037	
1.355	-0.243	-0.023	
1.360	-0.006	-0.025	
1.365	0.649	-0.004	
1.370	0.075	0.070	
1.375	-0.101	0.126	
1.380	0.435	0.144	
1.385	0.053	0.165	
1.390	-0.294	0.156	
1.395	0.046	0.100	
1.400	0.194	0.054	
1.405	-0.289	0.028	
1.410	-0.130	-0.014	
1.415	0.334	-0.042	
1.420	-0.167	-0.031	
1.425	-0.231	-0.030	
1.430	0.318	-0.039	
1.435	0.072	-0.014	
1.440	-0.265	0.010	
1.445	0.127	0.005	
1.450	0.296	0.014	
1.455	-0.237	0.039	
1.460	-0.081	0.031	
1.465	0.431	0.024	
1.470	-0.086	0.047	
1.475	-0.179	0.054	
1.480	0.385	0.045	
1.485	0.140	0.065	
1.490	-0.217	0.084	
1.495	0.139	0.071	
1.500	0.339	0.070	
1.505	-0.202	0.084	
1.510	-0.046	0.071	
1.515	0.473	0.060	
1.520	-0.060	0.082	
1.525	-0.152	0.087	
1.530	0.414	0.076	
1.535	0.148	0.094	
1.540	-0.228	0.108	
1.545	0.180	0.089	
1.550	0.339	0.085	
1.555	-0.229	0.096	
1.560	-0.086	0.075	
1.565	0.431	0.052	
1.570	-0.095	0.062	
1.575	-0.210	0.057	
1.580	0.314	0.035	
1.585	0.084	0.041	
1.590	-0.246	0.047	
1.595	0.130	0.029	
1.600	0.325	0.030	
1.605	-0.228	0.050	
1.610	-0.090	0.041	
1.615	0.423	0.029	
1.620	-0.081	0.049	
1.625	-0.199	0.053	
1.630	0.354	0.039	
1.635	0.136	0.055	
1.640	-0.220	0.071	
1.645	0.133	0.058	
1.650	0.327	0.058	
1.655	-0.231	0.073	
1.660	-0.119	0.055	
1.665	0.362	0.031	
1.670	-0.150	0.035	
1.675	-0.254	0.021	
1.680	0.236	-0.009	
1.685	0.018	-0.011	
1.690	-0.298	-0.011	
1.695	0.047	-0.034	
1.700	0.240	-0.037	
1.705	-0.271	-0.020	
1.710	-0.155	-0.029	
1.715	0.318	-0.040	
1.720	-0.136	-0.022	
1.725	-0.231	-0.018	
1.730	0.304	-0.026	
1.735	0.175	0.000	
1.740	-0.159	0.036	
1.745	0.350	0.056	
1.750	0.449	0.102	
1.755	-0.193	0.154	
1.760	-0.104	0.149	
1.765	0.354	0.117	
1.770	-0.136	0.101	
1.775	-0.255	0.067	
1.780	0.263	0.020	
1.785	0.104	0.010	
1.790	-0.243	0.014	
1.795	0.120	0.001	
1.800	0.351	0.011	
1.805	-0.205	0.042	
1.810	-0.090	0.043	
1.815	0.423	0.037	
1.820	-0.069	0.059	
1.825	-0.179	0.064	
1.830	0.354	0.051	
1.835	0.175	0.068	
1.840	-0.214	0.086	
1.845	0.149	0.075	
1.850	0.400	0.077	
1.855	-0.168	0.101	
1.860	-0.038	0.095	
1.865	0.516	0.087	
1.870	-0.029	0.111	
1.875	-0.162	0.116	
1.880	0.417	0.100	
1.885	0.250	0.117	
1.890	-0.197	0.136	
1.895	0.174	0.122	
1.900	0.447	0.120	
1.905	-0.167	0.139	
1.910	-0.042	0.126	
1.915	0.512	0.108	
1.920	-0.035	0.123	
1.925	-0.159	0.121	
1.930	0.368	0.098	
1.935	0.174	0.103	
1.940	-0.236	0.109	
1.945	0.117	0.083	
1.950	0.377	0.073	
1.955	-0.188	0.086	
1.960	-0.109	0.071	
1.965	0.421	0.052	
1.970	-0.069	0.063	
1.975	-0.194	0.061	
1.980	0.340	0.044	
1.985	0.191	0.058	
1.990	-0.219	0.078	
1.995	0.146	0.068	
2.000	0.402	0.073	
2.005	-0.181	0.097	
2.010	-0.078	0.090	
2.015	0.431	0.074	
2.020	-0.074	0.085	
2.025	-0.200	0.079	
2.030	0.301	0.053	
2.035	0.105	0.054	
2.040	-0.284	0.055	
2.045	0.013	0.024	
2.050	0.253	0.005	
2.055	-0.243	0.007	
2.060	-0.150	-0.011	
2.065	0.302	-0.029	
2.070	-0.147	-0.018	
2.075	-0.272	-0.022	
2.080	0.206	-0.042	
2.085	0.035	-0.036	
2.090	-0.320	-0.028	
2.095	-0.016	-0.048	
2.100	0.261	-0.053	
2.105	-0.197	-0.031	
2.110	-0.083	-0.025	
2.115	0.567	-0.008	
2.120	0.023	0.052	
2.125	-0.190	0.091	
2.130	0.261	0.089	
2.135	0.055	0.089	
2.140	-0.326	0.075	
2.145	-0.052	0.024	
2.150	0.203	-0.016	
2.155	-0.265	-0.028	
2.160	-0.167	-0.052	
2.165	0.305	-0.068	
2.170	-0.129	-0.048	
2.175	-0.254	-0.039	
2.180	0.259	-0.045	
2.185	0.116	-0.022	
2.190	-0.294	0.002	
2.195	0.007	-0.007	
2.200	0.305	-0.010	
2.205	-0.220	0.009	
2.210	-0.130	0.005	
2.215	0.414	-0.001	
2.220	-0.057	0.025	
2.225	-0.214	0.038	
2.230	0.288	0.028	
2.235	0.154	0.042	
2.240	-0.242	0.057	
2.245	0.084	0.043	
2.250	0.353	0.041	
2.255	-0.205	0.059	
2.260	-0.119	0.049	
2.265	0.397	0.033	
2.270	-0.074	0.047	
2.275	-0.214	0.046	
2.280	0.311	0.029	
2.285	0.152	0.041	
2.290	-0.266	0.055	
2.295	0.006	0.035	
2.300	0.266	0.019	
2.305	-0.236	0.022	
2.310	-0.158	0.002	
2.315	0.339	-0.018	
2.320	-0.106	-0.005	
2.325	-0.265	-0.004	
2.330	0.204	-0.023	
2.335	0.093	-0.017	
2.340	-0.291	-0.006	
2.345	-0.016	-0.023	
2.350	0.272	-0.029	
2.355	-0.262	-0.015	
2.360	-0.170	-0.024	
2.365	0.334	-0.037	
2.370	-0.103	-0.018	
2.375	-0.262	-0.011	
2.380	0.198	-0.026	
2.385	0.070	-0.019	
2.390	-0.309	-0.010	
2.395	-0.042	-0.032	
2.400	0.212	-0.044	
2.405	-0.281	-0.038	
2.410	-0.216	-0.054	
2.415	0.232	-0.074	
2.420	-0.155	-0.066	
2.425	-0.321	-0.068	
2.430	0.085	-0.089	
2.435	-0.003	-0.091	
2.440	-0.359	-0.087	
2.445	-0.097	-0.107	
2.450	0.163	-0.115	
2.455	-0.287	-0.101	
2.460	-0.229	-0.104	
2.465	0.181	-0.113	
2.470	-0.162	-0.098	
2.475	-0.300	-0.093	
2.480	0.221	-0.098	
2.485	0.209	-0.066	
2.490	-0.226	-0.019	
2.495	0.012	-0.003	
2.500	0.233	0.006	
2.505	-0.292	0.019	
2.510	-0.254	-0.007	
2.515	0.139	-0.048	
2.520	-0.197	-0.068	
2.525	-0.339	-0.093	
2.530	0.079	-0.124	
2.535	0.010	-0.125	
2.540	-0.335	-0.113	
2.545	-0.074	-0.120	
2.550	0.145	-0.117	
2.555	-0.291	-0.097	
2.560	-0.211	-0.100	
2.565	0.304	-0.101	
2.570	-0.107	-0.070	
2.575	-0.268	-0.050	
2.580	0.191	-0.052	
2.585	0.097	-0.033	
2.590	-0.310	-0.015	
2.595	-0.037	-0.029	
2.600	0.282	-0.035	
2.605	-0.226	-0.018	
2.610	-0.159	-0.021	
2.615	0.292	-0.031	
2.620	-0.110	-0.015	
2.625	-0.254	-0.013	
2.630	0.232	-0.028	
2.635	0.116	-0.015	
2.640	-0.304	0.002	
2.645	-0.042	-0.015	
2.650	0.282	-0.025	
2.655	-0.245	-0.013	
2.660	-0.190	-0.023	
2.665	0.284	-0.039	
2.670	-0.110	-0.028	
2.675	-0.300	-0.028	
2.680	0.099	-0.051	
2.685	0.036	-0.056	
2.690	-0.326	-0.055	
2.695	-0.080	-0.077	
2.700	0.212	-0.086	
2.705	-0.268	-0.071	
2.710	-0.216	-0.075	
2.715	0.281	-0.083	
2.720	-0.109	-0.060	
2.725	-0.295	-0.049	
2.730	0.133	-0.060	
2.735	0.090	-0.052	
2.740	-0.284	-0.037	
2.745	-0.052	-0.047	
2.750	0.266	-0.049	
2.755	-0.234	-0.030	
2.760	-0.193	-0.033	
2.765	0.293	-0.044	
2.770	-0.113	-0.028	
2.775	-0.294	-0.025	
2.780	0.082	-0.048	
2.785	-0.016	-0.057	
2.790	-0.355	-0.065	
2.795	-0.107	-0.095	
2.800	0.137	-0.112	
2.805	-0.312	-0.107	
2.810	-0.255	-0.119	
2.815	0.212	-0.131	
2.820	-0.144	-0.111	
2.825	-0.323	-0.100	
2.830	0.070	-0.109	
2.835	0.007	-0.101	
2.840	-0.364	-0.092	
2.845	-0.109	-0.108	
2.850	0.269	-0.111	
2.855	-0.179	-0.080	
2.860	-0.075	-0.058	
2.865	0.434	-0.031	
2.870	-0.055	0.021	
2.875	-0.280	0.045	
2.880	0.114	0.026	
2.885	0.015	0.010	
2.890	-0.350	-0.010	
2.895	-0.097	-0.053	
2.900	0.180	-0.082	
2.905	-0.271	-0.081	
2.910	-0.207	-0.092	
2.915	0.295	-0.098	
2.920	-0.087	-0.070	
2.925	-0.254	-0.049	
2.930	0.221	-0.047	
2.935	0.114	-0.023	
2.940	-0.286	0.000	
2.945	-0.013	-0.010	
2.950	0.347	-0.012	
2.955	-0.193	0.012	
2.960	-0.145	0.013	
2.965	0.409	0.008	
2.970	-0.025	0.034	
2.975	-0.216	0.047	
2.980	0.308	0.038	
2.985	0.270	0.057	
2.990	-0.205	0.086	
2.995	0.061	0.081	
3.000	0.438	0.079	
3.005	-0.132	0.101	
3.010	-0.097	0.097	
3.015	0.478	0.084	
3.020	0.055	0.104	
3.025	-0.185	0.114	
3.030	0.363	0.099	
3.035	0.255	0.111	
3.040	-0.234	0.125	
3.045	0.023	0.101	
3.050	0.350	0.077	
3.055	-0.188	0.076	
3.060	-0.141	0.054	
3.065	0.414	0.030	
3.070	-0.008	0.044	
3.075	-0.232	0.051	
3.080	0.261	0.035	
3.085	0.197	0.043	
3.090	-0.248	0.058	
3.095	0.036	0.042	
3.100	0.438	0.039	
3.105	-0.142	0.066	
3.110	-0.109	0.069	
3.115	0.470	0.063	
3.120	0.021	0.088	
3.125	-0.190	0.098	
3.130	0.331	0.084	
3.135	0.281	0.097	
3.140	-0.219	0.116	
3.145	0.026	0.098	
3.150	0.382	0.081	
3.155	-0.214	0.084	
3.160	-0.182	0.060	
3.165	0.351	0.026	
3.170	-0.055	0.026	
3.175	-0.260	0.021	
3.180	0.174	-0.005	
3.185	0.177	-0.004	
3.190	-0.275	0.009	
3.195	-0.042	-0.006	
3.200	0.322	-0.013	
3.205	-0.197	0.004	
3.210	-0.164	0.001	
3.215	0.328	-0.010	
3.220	-0.038	0.008	
3.225	-0.200	0.017	
3.230	0.426	0.018	
3.235	0.479	0.067	
3.240	-0.090	0.139	
3.245	0.203	0.172	
3.250	0.460	0.192	
3.255	-0.185	0.209	
3.260	-0.173	0.176	
3.265	0.343	0.118	
3.270	-0.040	0.090	
3.275	-0.239	0.060	
3.280	0.226	0.021	
3.285	0.201	0.017	
3.290	-0.266	0.029	
3.295	-0.016	0.013	
3.300	0.388	0.007	
3.305	-0.153	0.031	
3.310	-0.113	0.036	
3.315	0.479	0.036	
3.320	0.042	0.070	
3.325	-0.187	0.092	
3.330	0.334	0.085	
3.335	0.318	0.104	
3.340	-0.199	0.129	
3.345	0.085	0.118	
3.350	0.449	0.110	
3.355	-0.133	0.125	
3.360	-0.097	0.113	
3.365	0.557	0.097	
3.370	0.052	0.121	
3.375	-0.188	0.132	
3.380	0.348	0.114	
3.385	0.345	0.124	
3.390	-0.182	0.145	
3.395	0.107	0.133	
3.400	0.505	0.127	
3.405	-0.100	0.148	
3.410	-0.071	0.142	
3.415	0.518	0.125	
3.420	0.052	0.141	
3.425	-0.202	0.142	
3.430	0.298	0.114	
3.435	0.282	0.110	
3.440	-0.226	0.117	
3.445	0.030	0.093	
3.450	0.450	0.077	
3.455	-0.165	0.090	
3.460	-0.145	0.079	
3.465	0.435	0.058	
3.470	0.050	0.072	
3.475	-0.196	0.082	
3.480	0.324	0.071	
3.485	0.340	0.089	
3.490	-0.177	0.119	
3.495	0.090	0.116	
3.500	0.516	0.117	
3.505	-0.097	0.143	
3.510	-0.075	0.141	
3.515	0.516	0.126	
3.520	0.090	0.144	
3.525	-0.196	0.149	
3.530	0.279	0.123	
3.535	0.255	0.116	
3.540	-0.251	0.116	
3.545	-0.026	0.082	
3.550	0.345	0.052	
3.555	-0.193	0.049	
3.560	-0.174	0.029	
3.565	0.376	0.006	
3.570	-0.009	0.020	
3.575	-0.246	0.028	
3.580	0.209	0.013	
3.585	0.203	0.021	
3.590	-0.277	0.036	
3.595	-0.054	0.019	
3.600	0.360	0.005	
3.605	-0.152	0.022	
3.610	-0.097	0.024	
3.615	0.631	0.034	
3.620	0.330	0.101	
3.625	-0.092	0.171	
3.630	0.376	0.198	
3.635	0.292	0.218	
3.640	-0.245	0.221	
3.645	-0.037	0.171	
3.650	0.377	0.117	
3.655	-0.158	0.095	
3.660	-0.167	0.062	
3.665	0.350	0.027	
3.670	-0.017	0.029	
3.675	-0.246	0.028	
3.680	0.206	0.008	
3.685	0.235	0.015	
3.690	-0.243	0.036	
3.695	-0.042	0.026	
3.700	0.371	0.018	
3.705	-0.152	0.037	
3.710	-0.150	0.035	
3.715	0.435	0.027	
3.720	0.041	0.053	
3.725	-0.225	0.070	
3.730	0.253	0.058	
3.735	0.287	0.068	
3.740	-0.223	0.088	
3.745	0.018	0.075	
3.750	0.458	0.067	
3.755	-0.106	0.089	
3.760	-0.081	0.091	
3.765	0.519	0.087	
3.770	0.134	0.119	
3.775	-0.168	0.142	
3.780	0.307	0.131	
3.785	0.330	0.138	
3.790	-0.203	0.151	
3.795	0.056	0.128	
3.800	0.467	0.111	
3.805	-0.112	0.122	
3.810	-0.133	0.111	
3.815	0.424	0.087	
3.820	0.052	0.094	
3.825	-0.217	0.095	
3.830	0.255	0.072	
3.835	0.223	0.071	
3.840	-0.245	0.078	
3.845	-0.040	0.054	
3.850	0.394	0.035	
3.855	-0.142	0.047	
3.860	-0.148	0.042	
3.865	0.412	0.031	
3.870	0.056	0.054	
3.875	-0.199	0.070	
3.880	0.284	0.062	
3.885	0.321	0.079	
3.890	-0.208	0.106	
3.895	0.000	0.095	
3.900	0.360	0.079	
3.905	-0.162	0.082	
3.910	-0.181	0.062	
3.915	0.354	0.033	
3.920	-0.035	0.035	
3.925	-0.286	0.030	
3.930	0.101	-0.002	
3.935	0.136	-0.015	
3.940	-0.301	-0.015	
3.945	-0.110	-0.039	
3.950	0.264	-0.056	
3.955	-0.223	-0.044	
3.960	-0.223	-0.049	
3.965	0.269	-0.061	
3.970	-0.068	-0.045	
3.975	-0.315	-0.036	
3.980	0.091	-0.054	
3.985	0.174	-0.050	
3.990	-0.236	-0.030	
3.995	0.072	-0.025	
4.000	0.602	0.006	
4.005	-0.078	0.075	
4.010	-0.144	0.109	
4.015	0.313	0.103	
4.020	-0.061	0.101	
4.025	-0.309	0.075	
4.030	0.078	0.021	
4.035	0.169	-0.008	
4.040	-0.266	-0.015	
4.045	-0.066	-0.035	
4.050	0.337	-0.041	
4.055	-0.181	-0.017	
4.060	-0.188	-0.012	
4.065	0.321	-0.018	
4.070	-0.003	0.003	
4.075	-0.266	0.015	
4.080	0.152	0.001	
4.085	0.261	0.007	
4.090	-0.255	0.028	
4.095	-0.048	0.020	
4.100	0.412	0.015	
4.105	-0.142	0.039	
4.110	-0.168	0.042	
4.115	0.389	0.031	
4.120	0.049	0.051	
4.125	-0.234	0.063	
4.130	0.203	0.047	
4.135	0.278	0.051	
4.140	-0.226	0.068	
4.145	-0.028	0.055	
4.150	0.412	0.044	
4.155	-0.127	0.062	
4.160	-0.179	0.058	
4.165	0.318	0.038	
4.170	0.036	0.043	
4.175	-0.239	0.045	
4.180	0.185	0.026	
4.185	0.281	0.031	
4.190	-0.229	0.051	
4.195	-0.032	0.042	
4.200	0.417	0.036	
4.205	-0.135	0.056	
4.210	-0.177	0.055	
4.215	0.356	0.038	
4.220	0.029	0.048	
4.225	-0.243	0.053	
4.230	0.198	0.033	
4.235	0.285	0.037	
4.240	-0.207	0.059	
4.245	-0.002	0.052	
4.250	0.443	0.050	
4.255	-0.112	0.076	
4.260	-0.142	0.078	
4.265	0.452	0.067	
4.270	0.073	0.088	
4.275	-0.223	0.099	
4.280	0.203	0.079	
4.285	0.284	0.075	
4.290	-0.245	0.084	
4.295	-0.068	0.060	
4.300	0.362	0.037	
4.305	-0.159	0.041	
4.310	-0.202	0.029	
4.315	0.287	0.004	
4.320	-0.023	0.008	
4.325	-0.281	0.006	
4.330	0.079	-0.019	
4.335	0.192	-0.025	
4.340	-0.281	-0.015	
4.345	-0.118	-0.030	
4.350	0.249	-0.044	
4.355	-0.207	-0.035	
4.360	-0.225	-0.042	
4.365	0.327	-0.053	
4.370	0.133	-0.023	
4.375	-0.150	0.017	
4.380	0.314	0.040	
4.385	0.325	0.081	
4.390	-0.254	0.119	
4.395	-0.106	0.102	
4.400	0.250	0.066	
4.405	-0.205	0.044	
4.410	-0.226	0.007	
4.415	0.285	-0.029	
4.420	0.017	-0.025	
4.425	-0.254	-0.015	
4.430	0.124	-0.025	
4.435	0.267	-0.013	
4.440	-0.245	0.014	
4.445	-0.077	0.011	
4.450	0.379	0.007	
4.455	-0.130	0.029	
4.460	-0.159	0.032	
4.465	0.402	0.026	
4.470	0.107	0.053	
4.475	-0.211	0.075	
4.480	0.233	0.068	
4.485	0.328	0.079	
4.490	-0.191	0.102	
4.495	0.000	0.092	
4.500	0.461	0.083	
4.505	-0.109	0.100	
4.510	-0.138	0.095	
4.515	0.441	0.078	
4.520	0.127	0.095	
4.525	-0.199	0.109	
4.530	0.204	0.093	
4.535	0.281	0.090	
4.540	-0.229	0.097	
4.545	-0.080	0.071	
4.550	0.362	0.043	
4.555	-0.142	0.045	
4.560	-0.193	0.032	
4.565	0.304	0.010	
4.570	0.017	0.017	
4.575	-0.275	0.020	
4.580	0.090	-0.003	
4.585	0.204	-0.008	
4.590	-0.286	0.000	
4.595	-0.153	-0.020	
4.600	0.282	-0.040	
4.605	-0.188	-0.032	
4.610	-0.237	-0.038	
4.615	0.278	-0.051	
4.620	0.046	-0.032	
4.625	-0.254	-0.011	
4.630	0.136	-0.014	
4.635	0.267	0.001	
4.640	-0.223	0.028	
4.645	-0.055	0.026	
4.650	0.380	0.022	
4.655	-0.122	0.043	
4.660	-0.185	0.043	
4.665	0.327	0.027	
4.670	0.029	0.038	
4.675	-0.274	0.041	
4.680	0.073	0.014	
4.685	0.191	0.002	
4.690	-0.281	0.003	
4.695	-0.142	-0.021	
4.700	0.290	-0.041	
4.705	-0.174	-0.032	
4.710	-0.234	-0.034	
4.715	0.247	-0.048	
4.720	-0.022	-0.035	
4.725	-0.309	-0.026	
4.730	0.020	-0.046	
4.735	0.162	-0.052	
4.740	-0.231	-0.041	
4.745	-0.023	-0.042	
4.750	0.498	-0.025	
4.755	-0.072	0.030	
4.760	-0.179	0.059	
4.765	0.307	0.057	
4.770	0.010	0.066	
4.775	-0.292	0.060	
4.780	0.059	0.022	
4.785	0.232	0.002	
4.790	-0.245	0.005	
4.795	-0.080	-0.010	
4.800	0.443	-0.014	
4.805	-0.104	0.019	
4.810	-0.159	0.035	
4.815	0.427	0.037	
4.820	0.183	0.072	
4.825	-0.200	0.103	
4.830	0.230	0.100	
4.835	0.385	0.110	
4.840	-0.182	0.132	
4.845	-0.002	0.119	
4.850	0.533	0.107	
4.855	-0.029	0.129	
4.860	-0.116	0.133	
4.865	0.493	0.121	
4.870	0.259	0.144	
4.875	-0.130	0.170	
4.880	0.345	0.167	
4.885	0.505	0.184	
4.890	-0.109	0.216	
4.895	0.073	0.208	
4.900	0.600	0.196	
4.905	-0.025	0.211	
4.910	-0.101	0.200	
4.915	0.536	0.172	
4.920	0.272	0.184	
4.925	-0.156	0.198	
4.930	0.288	0.180	
4.935	0.452	0.178	
4.940	-0.141	0.193	
4.945	-0.016	0.172	
4.950	0.479	0.144	
4.955	-0.060	0.144	
4.960	-0.158	0.127	
4.965	0.409	0.097	
4.970	0.145	0.101	
4.975	-0.228	0.106	
4.980	0.156	0.082	
4.985	0.368	0.076	
4.990	-0.161	0.093	
4.995	-0.037	0.084	
5.000	0.476	0.076	
5.005	-0.029	0.098	
5.010	-0.132	0.105	
5.015	0.431	0.095	
5.020	0.145	0.113	
5.025	-0.203	0.125	
5.030	0.174	0.103	
5.035	0.330	0.096	
5.040	-0.223	0.102	
5.045	-0.107	0.077	
5.050	0.334	0.045	
5.055	-0.135	0.041	
5.060	-0.232	0.023	
5.065	0.252	-0.005	
5.070	0.047	-0.004	
5.075	-0.275	0.001	
5.080	0.055	-0.018	
5.085	0.255	-0.019	
5.090	-0.232	-0.001	
5.095	-0.097	-0.006	
5.100	0.354	-0.011	
5.105	-0.135	0.011	
5.110	-0.194	0.014	
5.115	0.414	0.009	
5.120	0.295	0.047	
5.125	-0.084	0.099	
5.130	0.322	0.128	
5.135	0.424	0.163	
5.140	-0.182	0.196	
5.145	-0.092	0.175	
5.150	0.327	0.130	
5.155	-0.145	0.103	
5.160	-0.219	0.063	
5.165	0.272	0.017	
5.170	0.091	0.010	
5.175	-0.237	0.015	
5.180	0.136	0.003	
5.185	0.298	0.012	
5.190	-0.219	0.038	
5.195	-0.064	0.034	
5.200	0.426	0.030	
5.205	-0.083	0.054	
5.210	-0.167	0.061	
5.215	0.392	0.052	
5.220	0.223	0.076	
5.225	-0.164	0.106	
5.230	0.208	0.105	
5.235	0.409	0.116	
5.240	-0.147	0.141	
5.245	0.001	0.132	
5.250	0.541	0.122	
5.255	0.017	0.145	
5.260	-0.092	0.152	
5.265	0.527	0.144	
5.270	0.275	0.170	
5.275	-0.168	0.194	
5.280	0.241	0.178	
5.285	0.447	0.172	
5.290	-0.152	0.183	
5.295	-0.011	0.161	
5.300	0.450	0.133	
5.305	-0.063	0.133	
5.310	-0.174	0.115	
5.315	0.356	0.083	
5.320	0.156	0.083	
5.325	-0.236	0.088	
5.330	0.104	0.065	
5.335	0.290	0.053	
5.340	-0.217	0.059	
5.345	-0.092	0.040	
5.350	0.353	0.021	
5.355	-0.110	0.031	
5.360	-0.205	0.027	
5.365	0.308	0.010	
5.370	0.110	0.024	
5.375	-0.262	0.039	
5.380	0.094	0.024	
5.385	0.331	0.024	
5.390	-0.196	0.046	
5.395	-0.077	0.042	
5.400	0.431	0.036	
5.405	-0.081	0.059	
5.410	-0.205	0.062	
5.415	0.269	0.042	
5.420	0.064	0.043	
5.425	-0.262	0.041	
5.430	0.006	0.012	
5.435	0.180	-0.008	
5.440	-0.300	-0.013	
5.445	-0.177	-0.041	
5.450	0.266	-0.065	
5.455	-0.145	-0.055	
5.460	-0.263	-0.053	
5.465	0.186	-0.065	
5.470	0.003	-0.054	
5.475	-0.315	-0.044	
5.480	-0.028	-0.061	
5.485	0.195	-0.066	
5.490	-0.232	-0.051	
5.495	-0.061	-0.049	
5.500	0.574	-0.029	
5.505	0.113	0.042	
5.510	-0.129	0.100	
5.515	0.308	0.117	
5.520	0.064	0.130	
5.525	-0.297	0.118	
5.530	-0.019	0.066	
5.535	0.214	0.022	
5.540	-0.254	0.004	
5.545	-0.145	-0.026	
5.550	0.331	-0.046	
5.555	-0.107	-0.028	
5.560	-0.226	-0.019	
5.565	0.281	-0.024	
5.570	0.099	-0.002	
5.575	-0.268	0.019	
5.580	0.052	0.008	
5.585	0.327	0.009	
5.590	-0.202	0.031	
5.595	-0.103	0.027	
5.600	0.411	0.021	
5.605	-0.060	0.044	
5.610	-0.193	0.052	
5.615	0.360	0.042	
5.620	0.226	0.065	
5.625	-0.207	0.092	
5.630	0.169	0.087	
5.635	0.455	0.096	
5.640	-0.129	0.126	
5.645	-0.026	0.126	
5.650	0.513	0.118	
5.655	-0.017	0.137	
5.660	-0.144	0.137	
5.665	0.415	0.117	
5.670	0.236	0.128	
5.675	-0.197	0.142	
5.680	0.160	0.122	
5.685	0.345	0.112	
5.690	-0.174	0.117	
5.695	-0.064	0.095	
5.700	0.460	0.074	
5.705	-0.058	0.087	
5.710	-0.193	0.084	
5.715	0.308	0.061	
5.720	0.172	0.066	
5.725	-0.226	0.076	
5.730	0.091	0.058	
5.735	0.363	0.053	
5.740	-0.184	0.070	
5.745	-0.086	0.062	
5.750	0.443	0.050	
5.755	-0.029	0.071	
5.760	-0.182	0.077	
5.765	0.331	0.063	
5.770	0.203	0.076	
5.775	-0.214	0.093	
5.780	0.099	0.078	
5.785	0.359	0.072	
5.790	-0.179	0.085	
5.795	-0.103	0.071	
5.800	0.379	0.051	
5.805	-0.090	0.058	
5.810	-0.236	0.049	
5.815	0.208	0.019	
5.820	0.081	0.013	
5.825	-0.297	0.011	
5.830	-0.031	-0.017	
5.835	0.243	-0.033	
5.840	-0.249	-0.026	
5.845	-0.145	-0.035	
5.850	0.350	-0.043	
5.855	-0.075	-0.016	
5.860	-0.226	-0.001	
5.865	0.223	-0.008	
5.870	0.079	0.004	
5.875	-0.236	0.016	
5.880	0.198	0.010	
5.885	0.573	0.039	
5.890	-0.034	0.106	
5.895	0.001	0.143	
5.900	0.492	0.156	
5.905	-0.060	0.176	
5.910	-0.245	0.160	
5.915	0.200	0.106	
5.920	0.090	0.071	
5.925	-0.280	0.046	
5.930	-0.003	0.003	
5.935	0.259	-0.020	
5.940	-0.239	-0.015	
5.945	-0.155	-0.027	
5.950	0.383	-0.035	
5.955	-0.060	-0.007	
5.960	-0.207	0.010	
5.965	0.273	0.008	
5.970	0.174	0.029	
5.975	-0.231	0.052	
5.980	0.072	0.044	
5.985	0.354	0.044	
5.990	-0.181	0.063	
5.995	-0.103	0.056	
6.000	0.438	0.045	
6.005	-0.016	0.066	
6.010	-0.205	0.073	
6.015	0.340	0.060	
6.020	0.261	0.076	
6.025	-0.211	0.100	
6.030	0.033	0.087	
6.035	0.389	0.076	
6.040	-0.153	0.087	
6.045	-0.101	0.076	
6.050	0.435	0.060	
6.055	-0.009	0.076	
6.060	-0.190	0.080	
6.065	0.337	0.065	
6.070	0.206	0.078	
6.075	-0.240	0.093	
6.080	0.021	0.072	
6.085	0.388	0.057	
6.090	-0.184	0.067	
6.095	-0.139	0.054	
6.100	0.354	0.033	
6.105	-0.058	0.040	
6.110	-0.232	0.036	
6.115	0.256	0.016	
6.120	0.163	0.023	
6.125	-0.248	0.038	
6.130	0.049	0.025	
6.135	0.392	0.025	
6.140	-0.159	0.052	
6.145	-0.093	0.054	
6.150	0.496	0.053	
6.155	-0.006	0.083	
6.160	-0.197	0.096	
6.165	0.304	0.080	
6.170	0.223	0.087	
6.175	-0.237	0.098	
6.180	-0.002	0.073	
6.185	0.316	0.051	
6.190	-0.231	0.049	
6.195	-0.185	0.024	
6.200	0.311	-0.006	
6.205	-0.077	-0.003	
6.210	-0.245	-0.005	
6.215	0.186	-0.023	
6.220	0.081	-0.018	
6.225	-0.313	-0.010	
6.230	-0.057	-0.033	
6.235	0.270	-0.045	
6.240	-0.226	-0.031	
6.245	-0.205	-0.036	
6.250	0.263	-0.049	
6.255	-0.068	-0.035	
6.260	-0.182	-0.024	
6.265	0.457	-0.013	
6.270	0.470	0.050	
6.275	-0.170	0.129	
6.280	0.036	0.151	
6.285	0.302	0.144	
6.290	-0.236	0.132	
6.295	-0.200	0.085	
6.300	0.267	0.029	
6.305	-0.101	0.007	
6.310	-0.268	-0.014	
6.315	0.146	-0.045	
6.320	0.088	-0.046	
6.325	-0.295	-0.037	
6.330	-0.054	-0.052	
6.335	0.269	-0.055	
6.340	-0.225	-0.035	
6.345	-0.179	-0.035	
6.350	0.319	-0.041	
6.355	-0.058	-0.018	
6.360	-0.240	-0.005	
6.365	0.191	-0.014	
6.370	0.177	-0.001	
6.375	-0.263	0.019	
6.380	-0.037	0.007	
6.385	0.285	-0.002	
6.390	-0.205	0.009	
6.395	-0.170	-0.001	
6.400	0.342	-0.015	
6.405	-0.034	0.003	
6.410	-0.236	0.013	
6.415	0.220	0.002	
6.420	0.204	0.016	
6.425	-0.283	0.035	
6.430	-0.068	0.019	
6.435	0.255	-0.001	
6.440	-0.214	0.001	
6.445	-0.179	-0.015	
6.450	0.287	-0.033	
6.455	-0.104	-0.023	
6.460	-0.294	-0.023	
6.465	0.101	-0.046	
6.470	0.073	-0.050	
6.475	-0.315	-0.046	
6.480	-0.097	-0.065	
6.485	0.204	-0.077	
6.490	-0.246	-0.065	
6.495	-0.211	-0.071	
6.500	0.267	-0.079	
6.505	-0.100	-0.058	
6.510	-0.283	-0.047	
6.515	0.136	-0.057	
6.520	0.122	-0.047	
6.525	-0.283	-0.028	
6.530	-0.063	-0.038	
6.535	0.281	-0.041	
6.540	-0.214	-0.022	
6.545	-0.211	-0.025	
6.550	0.224	-0.041	
6.555	-0.139	-0.037	
6.560	-0.344	-0.046	
6.565	-0.017	-0.081	
6.570	-0.035	-0.103	
6.575	-0.387	-0.116	
6.580	-0.187	-0.147	
6.585	0.068	-0.167	
6.590	-0.309	-0.163	
6.595	-0.277	-0.169	
6.600	0.143	-0.174	
6.605	-0.122	-0.149	
6.610	-0.341	-0.130	
6.615	0.012	-0.133	
6.620	-0.003	-0.125	
6.625	-0.359	-0.114	
6.630	-0.110	-0.126	
6.635	0.325	-0.121	
6.640	-0.118	-0.076	
6.645	-0.038	-0.038	
6.650	0.550	0.004	
6.655	0.052	0.076	
6.660	-0.257	0.115	
6.665	0.073	0.095	
6.670	0.064	0.066	
6.675	-0.336	0.033	
6.680	-0.116	-0.023	
6.685	0.233	-0.062	
6.690	-0.222	-0.063	
6.695	-0.214	-0.072	
6.700	0.284	-0.080	
6.705	-0.043	-0.055	
6.710	-0.246	-0.034	
6.715	0.188	-0.034	
6.720	0.203	-0.012	
6.725	-0.252	0.016	
6.730	-0.008	0.013	
6.735	0.409	0.016	
6.740	-0.152	0.044	
6.745	-0.138	0.049	
6.750	0.424	0.042	
6.755	0.055	0.066	
6.760	-0.190	0.082	
6.765	0.288	0.073	
6.770	0.295	0.086	
6.775	-0.211	0.108	
6.780	0.029	0.094	
6.785	0.421	0.082	
6.790	-0.135	0.095	
6.795	-0.126	0.085	
6.800	0.467	0.068	
6.805	0.012	0.085	
6.810	-0.220	0.090	
6.815	0.233	0.067	
6.820	0.229	0.065	
6.825	-0.246	0.073	
6.830	-0.019	0.050	
6.835	0.356	0.033	
6.840	-0.174	0.042	
6.845	-0.171	0.032	
6.850	0.365	0.013	
6.855	-0.006	0.027	
6.860	-0.249	0.034	
6.865	0.180	0.016	
6.870	0.218	0.019	
6.875	-0.242	0.035	
6.880	-0.055	0.021	
6.885	0.360	0.011	
6.890	-0.165	0.027	
6.895	-0.181	0.023	
6.900	0.359	0.009	
6.905	0.006	0.025	
6.910	-0.231	0.035	
6.915	0.217	0.023	
6.920	0.230	0.032	
6.925	-0.249	0.051	
6.930	-0.048	0.036	
6.935	0.333	0.021	
6.940	-0.181	0.031	
6.945	-0.216	0.018	
6.950	0.261	-0.008	
6.955	-0.071	-0.008	
6.960	-0.312	-0.015	
6.965	0.027	-0.047	
6.970	0.097	-0.061	
6.975	-0.300	-0.061	
6.980	-0.106	-0.077	
6.985	0.249	-0.083	
6.990	-0.236	-0.063	
6.995	-0.243	-0.064	
7.000	0.218	-0.075	
7.005	-0.077	-0.062	
7.010	-0.269	-0.053	
7.015	0.230	-0.057	
7.020	0.322	-0.024	
7.025	-0.168	0.029	
7.030	0.078	0.052	
7.035	0.427	0.073	
7.040	-0.164	0.106	
7.045	-0.226	0.096	
7.050	0.215	0.055	
7.055	-0.077	0.031	
7.060	-0.292	0.003	
7.065	0.090	-0.038	
7.070	0.151	-0.049	
7.075	-0.274	-0.040	
7.080	-0.077	-0.050	
7.085	0.301	-0.052	
7.090	-0.226	-0.029	
7.095	-0.234	-0.030	
7.100	0.229	-0.047	
7.105	-0.035	-0.038	
7.110	-0.300	-0.033	
7.115	0.094	-0.049	
7.120	0.186	-0.045	
7.125	-0.274	-0.025	
7.130	-0.061	-0.031	
7.135	0.377	-0.029	
7.140	-0.152	0.003	
7.145	-0.153	0.014	
7.150	0.417	0.015	
7.155	0.099	0.049	
7.160	-0.194	0.076	
7.165	0.247	0.073	
7.170	0.311	0.086	
7.175	-0.210	0.108	
7.180	-0.017	0.092	
7.185	0.398	0.075	
7.190	-0.132	0.082	
7.195	-0.142	0.071	
7.200	0.427	0.052	
7.205	0.078	0.070	
7.210	-0.220	0.083	
7.215	0.194	0.066	
7.220	0.246	0.064	
7.225	-0.231	0.073	
7.230	-0.034	0.052	
7.235	0.402	0.037	
7.240	-0.153	0.051	
7.245	-0.173	0.045	
7.250	0.363	0.028	
7.255	0.062	0.042	
7.260	-0.242	0.053	
7.265	0.177	0.037	
7.270	0.293	0.041	
7.275	-0.213	0.061	
7.280	-0.011	0.053	
7.285	0.452	0.049	
7.290	-0.112	0.074	
7.295	-0.138	0.077	
7.300	0.427	0.066	
7.305	0.075	0.085	
7.310	-0.232	0.095	
7.315	0.157	0.071	
7.320	0.236	0.061	
7.325	-0.262	0.062	
7.330	-0.100	0.033	
7.335	0.304	0.005	
7.340	-0.196	0.005	
7.345	-0.223	-0.010	
7.350	0.279	-0.033	
7.355	-0.008	-0.023	
7.360	-0.269	-0.014	
7.365	0.131	-0.026	
7.370	0.226	-0.017	
7.375	-0.255	0.005	
7.380	-0.069	-0.001	
7.385	0.429	-0.002	
7.390	-0.057	0.031	
7.395	-0.051	0.054	
7.400	0.588	0.075	
7.405	0.201	0.133	
7.410	-0.214	0.173	
7.415	0.128	0.156	
7.420	0.206	0.130	
7.425	-0.298	0.105	
7.430	-0.130	0.049	
7.435	0.301	0.000	
7.440	-0.161	-0.009	
7.445	-0.193	-0.022	
7.450	0.359	-0.033	
7.455	0.046	-0.006	
7.460	-0.245	0.018	
7.465	0.172	0.014	
7.470	0.284	0.027	
7.475	-0.228	0.052	
7.480	-0.037	0.045	
7.485	0.434	0.040	
7.490	-0.086	0.064	
7.495	-0.126	0.070	
7.500	0.475	0.067	
7.505	0.128	0.097	
7.510	-0.203	0.118	
7.515	0.252	0.105	
7.520	0.383	0.111	
7.525	-0.182	0.132	
7.530	0.027	0.120	
7.535	0.531	0.111	
7.540	-0.046	0.134	
7.545	-0.098	0.136	
7.550	0.450	0.122	
7.555	0.168	0.137	
7.560	-0.167	0.148	
7.565	0.261	0.130	
7.570	0.365	0.131	
7.575	-0.164	0.145	
7.580	-0.011	0.127	
7.585	0.472	0.107	
7.590	-0.086	0.117	
7.595	-0.139	0.108	
7.600	0.440	0.087	
7.605	0.068	0.098	
7.610	-0.226	0.101	
7.615	0.192	0.075	
7.620	0.316	0.071	
7.625	-0.199	0.084	
7.630	-0.035	0.070	
7.635	0.424	0.057	
7.640	-0.090	0.074	
7.645	-0.116	0.074	
7.650	0.481	0.068	
7.655	0.148	0.098	
7.660	-0.208	0.121	
7.665	0.235	0.109	
7.670	0.363	0.111	
7.675	-0.199	0.127	
7.680	-0.040	0.108	
7.685	0.426	0.086	
7.690	-0.122	0.090	
7.695	-0.210	0.075	
7.700	0.308	0.043	
7.705	0.044	0.040	
7.710	-0.272	0.037	
7.715	0.111	0.010	
7.720	0.226	0.004	
7.725	-0.254	0.014	
7.730	-0.098	-0.001	
7.735	0.368	-0.012	
7.740	-0.148	0.007	
7.745	-0.213	0.009	
7.750	0.324	-0.003	
7.755	0.076	0.015	
7.760	-0.202	0.034	
7.765	0.310	0.036	
7.770	0.516	0.073	
7.775	-0.133	0.134	
7.780	0.000	0.151	
7.785	0.460	0.146	
7.790	-0.142	0.153	
7.795	-0.219	0.126	
7.800	0.288	0.076	
7.805	0.033	0.055	
7.810	-0.257	0.040	
7.815	0.130	0.008	
7.820	0.273	0.004	
7.825	-0.245	0.021	
7.830	-0.077	0.012	
7.835	0.424	0.007	
7.840	-0.090	0.034	
7.845	-0.147	0.046	
7.850	0.437	0.046	
7.855	0.171	0.078	
7.860	-0.199	0.107	
7.865	0.247	0.102	
7.870	0.383	0.112	
7.875	-0.152	0.136	
7.880	0.044	0.129	
7.885	0.537	0.123	
7.890	-0.038	0.147	
7.895	-0.119	0.148	
7.900	0.479	0.130	
7.905	0.238	0.147	
7.910	-0.190	0.164	
7.915	0.266	0.147	
7.920	0.431	0.148	
7.925	-0.152	0.166	
7.930	-0.006	0.149	
7.935	0.492	0.129	
7.940	-0.061	0.137	
7.945	-0.152	0.126	
7.950	0.400	0.099	
7.955	0.128	0.103	
7.960	-0.231	0.106	
7.965	0.140	0.079	
7.970	0.296	0.067	
7.975	-0.246	0.071	
7.980	-0.112	0.046	
7.985	0.347	0.019	
7.990	-0.113	0.024	
7.995	-0.176	0.020	
8.000	0.382	0.010	
8.005	0.099	0.035	
8.010	-0.240	0.056	
8.015	0.172	0.047	
8.020	0.334	0.054	
8.025	-0.210	0.077	
8.030	-0.072	0.066	
8.035	0.427	0.052	
8.040	-0.115	0.067	
8.045	-0.187	0.062	
8.050	0.340	0.041	
8.055	0.078	0.050	
8.060	-0.260	0.056	
8.065	0.081	0.032	
8.070	0.211	0.019	
8.075	-0.271	0.020	
8.080	-0.138	-0.005	
8.085	0.298	-0.028	
8.090	-0.164	-0.020	
8.095	-0.246	-0.026	
8.100	0.256	-0.042	
8.105	0.003	-0.030	
8.110	-0.323	-0.021	
8.115	-0.003	-0.043	
8.120	0.194	-0.052	
8.125	-0.263	-0.041	
8.130	-0.087	-0.048	
8.135	0.473	-0.040	
8.140	0.001	0.010	
8.145	-0.075	0.052	
8.150	0.492	0.078	
8.155	0.122	0.125	
8.160	-0.278	0.145	
8.165	0.007	0.109	
8.170	0.133	0.065	
8.175	-0.303	0.030	
8.180	-0.148	-0.021	
8.185	0.308	-0.056	
8.190	-0.145	-0.048	
8.195	-0.222	-0.045	
8.200	0.299	-0.048	
8.205	0.087	-0.020	
8.210	-0.255	0.008	
8.215	0.127	0.007	
8.220	0.263	0.017	
8.225	-0.232	0.038	
8.230	-0.081	0.028	
8.235	0.457	0.021	
8.240	-0.078	0.048	
8.245	-0.171	0.059	
8.250	0.411	0.053	
8.255	0.178	0.078	
8.260	-0.207	0.102	
8.265	0.218	0.094	
8.270	0.408	0.102	
8.275	-0.184	0.127	
8.280	-0.046	0.115	
8.285	0.489	0.098	
8.290	-0.058	0.112	
8.295	-0.171	0.107	
8.300	0.379	0.084	
8.305	0.148	0.091	
8.310	-0.226	0.098	
8.315	0.154	0.077	
8.320	0.336	0.071	
8.325	-0.196	0.085	
8.330	-0.098	0.068	
8.335	0.398	0.048	
8.340	-0.101	0.057	
8.345	-0.197	0.051	
8.350	0.302	0.029	
8.355	0.093	0.036	
8.360	-0.251	0.044	
8.365	0.091	0.025	
8.370	0.327	0.023	
8.375	-0.196	0.043	
8.380	-0.090	0.038	
8.385	0.406	0.030	
8.390	-0.071	0.050	
8.395	-0.155	0.056	
8.400	0.412	0.050	
8.405	0.191	0.078	
8.410	-0.222	0.103	
8.415	0.143	0.092	
8.420	0.319	0.087	
8.425	-0.237	0.094	
8.430	-0.121	0.067	
8.435	0.322	0.034	
8.440	-0.153	0.029	
8.445	-0.257	0.010	
8.450	0.198	-0.023	
8.455	-0.008	-0.029	
8.460	-0.310	-0.032	
8.465	0.001	-0.057	
8.470	0.215	-0.063	
8.475	-0.277	-0.047	
8.480	-0.173	-0.054	
8.485	0.293	-0.063	
8.490	-0.150	-0.043	
8.495	-0.251	-0.038	
8.500	0.270	-0.046	
8.505	0.186	-0.019	
8.510	-0.168	0.019	
8.515	0.273	0.040	
8.520	0.457	0.082	
8.525	-0.200	0.132	
8.530	-0.119	0.130	
8.535	0.316	0.099	
8.540	-0.130	0.083	
8.545	-0.231	0.052	
8.550	0.290	0.013	
8.555	0.090	0.012	
8.560	-0.255	0.019	
8.565	0.072	0.003	
8.570	0.275	0.002	
8.575	-0.231	0.019	
8.580	-0.104	0.010	
8.585	0.397	0.002	
8.590	-0.066	0.027	
8.595	-0.179	0.038	
8.600	0.392	0.035	
8.605	0.221	0.065	
8.610	-0.199	0.097	
8.615	0.181	0.095	
8.620	0.420	0.104	
8.625	-0.152	0.129	
8.630	-0.020	0.122	
8.635	0.539	0.112	
8.640	-0.016	0.135	
8.645	-0.158	0.137	
8.650	0.432	0.118	
8.655	0.236	0.130	
8.660	-0.190	0.145	
8.665	0.211	0.129	
8.670	0.441	0.128	
8.675	-0.158	0.147	
8.680	-0.043	0.133	
8.685	0.508	0.114	
8.690	-0.008	0.128	
8.695	-0.155	0.127	
8.700	0.363	0.105	
8.705	0.177	0.110	
8.710	-0.223	0.114	
8.715	0.120	0.089	
8.720	0.351	0.077	
8.725	-0.200	0.085	
8.730	-0.097	0.067	
8.735	0.434	0.048	
8.740	-0.049	0.063	
8.745	-0.181	0.065	
8.750	0.345	0.052	
8.755	0.195	0.068	
8.760	-0.203	0.088	
8.765	0.163	0.079	
8.770	0.406	0.085	
8.775	-0.162	0.109	
8.780	-0.058	0.102	
8.785	0.473	0.089	
8.790	-0.029	0.106	
8.795	-0.177	0.105	
8.800	0.324	0.083	
8.805	0.137	0.085	
8.810	-0.260	0.085	
8.815	0.021	0.053	
8.820	0.258	0.030	
8.825	-0.240	0.026	
8.830	-0.147	0.003	
8.835	0.348	-0.018	
8.840	-0.103	-0.004	
8.845	-0.249	-0.002	
8.850	0.243	-0.017	
8.855	0.056	-0.007	
8.860	-0.309	0.001	
8.865	-0.008	-0.022	
8.870	0.301	-0.030	
8.875	-0.171	-0.009	
8.880	-0.006	0.001	
8.885	0.690	0.029	
8.890	0.169	0.108	
8.895	-0.113	0.170	
8.900	0.376	0.183	
8.905	0.152	0.193	
8.910	-0.272	0.181	
8.915	0.033	0.125	
8.920	0.270	0.077	
8.925	-0.236	0.055	
8.930	-0.109	0.020	
8.935	0.366	-0.005	
8.940	-0.084	0.008	
8.945	-0.211	0.013	
8.950	0.330	0.005	
8.955	0.195	0.029	
8.960	-0.210	0.060	
8.965	0.122	0.059	
8.970	0.402	0.068	
8.975	-0.165	0.095	
8.980	-0.069	0.090	
8.985	0.461	0.079	
8.990	-0.020	0.097	
8.995	-0.165	0.100	
9.000	0.376	0.084	
9.005	0.250	0.099	
9.010	-0.190	0.120	
9.015	0.175	0.110	
9.020	0.516	0.116	
9.025	-0.098	0.149	
9.030	-0.011	0.152	
9.035	0.574	0.146	
9.040	0.075	0.172	
9.045	-0.127	0.181	
9.050	0.432	0.163	
9.055	0.295	0.172	
9.060	-0.182	0.183	
9.065	0.134	0.158	
9.070	0.424	0.140	
9.075	-0.150	0.144	
9.080	-0.090	0.121	
9.085	0.449	0.092	
9.090	-0.026	0.098	
9.095	-0.203	0.091	
9.100	0.301	0.065	
9.105	0.188	0.067	
9.110	-0.243	0.076	
9.115	0.055	0.055	
9.120	0.363	0.045	
9.125	-0.168	0.060	
9.130	-0.080	0.054	
9.135	0.486	0.048	
9.140	-0.008	0.077	
9.145	-0.179	0.091	
9.150	0.371	0.081	
9.155	0.267	0.099	
9.160	-0.217	0.122	
9.165	0.056	0.105	
9.170	0.337	0.088	
9.175	-0.208	0.088	
9.180	-0.150	0.061	
9.185	0.342	0.029	
9.190	-0.098	0.028	
9.195	-0.260	0.017	
9.200	0.151	-0.013	
9.205	0.059	-0.021	
9.210	-0.312	-0.023	
9.215	-0.058	-0.048	
9.220	0.249	-0.060	
9.225	-0.232	-0.045	
9.230	-0.193	-0.049	
9.235	0.273	-0.057	
9.240	-0.106	-0.039	
9.245	-0.214	-0.030	
9.250	0.371	-0.028	
9.255	0.354	0.019	
9.260	-0.168	0.081	
9.265	0.084	0.101	
9.270	0.296	0.106	
9.275	-0.255	0.108	
9.280	-0.205	0.070	
9.285	0.227	0.018	
9.290	-0.132	-0.005	
9.295	-0.269	-0.030	
9.300	0.177	-0.059	
9.305	0.088	-0.055	
9.310	-0.289	-0.039	
9.315	-0.019	-0.048	
9.320	0.246	-0.047	
9.325	-0.229	-0.027	
9.330	-0.173	-0.030	
9.335	0.316	-0.038	
9.340	-0.060	-0.016	
9.345	-0.211	-0.003	
9.350	0.278	-0.006	
9.355	0.175	0.018	
9.360	-0.248	0.044	
9.365	0.018	0.035	
9.370	0.328	0.029	
9.375	-0.203	0.043	
9.380	-0.135	0.032	
9.385	0.409	0.017	
9.390	-0.009	0.038	
9.395	-0.203	0.050	
9.400	0.310	0.042	
9.405	0.256	0.061	
9.410	-0.254	0.085	
9.415	0.006	0.070	
9.420	0.348	0.055	
9.425	-0.190	0.061	
9.430	-0.129	0.045	
9.435	0.398	0.027	
9.440	-0.045	0.042	
9.445	-0.222	0.045	
9.450	0.259	0.028	
9.455	0.171	0.036	
9.460	-0.262	0.049	
9.465	0.004	0.030	
9.470	0.337	0.019	
9.475	-0.208	0.032	
9.480	-0.142	0.022	
9.485	0.357	0.007	
9.490	-0.071	0.021	
9.495	-0.239	0.023	
9.500	0.272	0.007	
9.505	0.177	0.020	
9.510	-0.258	0.040	
9.515	0.000	0.026	
9.520	0.325	0.018	
9.525	-0.190	0.032	
9.530	-0.170	0.022	
9.535	0.298	0.003	
9.540	-0.110	0.007	
9.545	-0.289	-0.002	
9.550	0.127	-0.032	
9.555	0.065	-0.039	
9.560	-0.315	-0.038	
9.565	-0.092	-0.061	
9.570	0.168	-0.076	
9.575	-0.284	-0.072	
9.580	-0.216	-0.085	
9.585	0.264	-0.096	
9.590	-0.103	-0.074	
9.595	-0.309	-0.062	
9.600	0.058	-0.074	
9.605	0.032	-0.074	
9.610	-0.303	-0.069	
9.615	-0.028	-0.081	
9.620	0.411	-0.070	
9.625	-0.104	-0.020	
9.630	-0.081	0.014	
9.635	0.405	0.035	
9.640	-0.055	0.069	
9.645	-0.269	0.075	
9.650	0.142	0.043	
9.655	0.052	0.022	
9.660	-0.327	0.004	
9.665	-0.081	-0.037	
9.670	0.240	-0.062	
9.675	-0.240	-0.056	
9.680	-0.190	-0.062	
9.685	0.314	-0.068	
9.690	-0.086	-0.042	
9.695	-0.266	-0.027	
9.700	0.191	-0.034	
9.705	0.169	-0.019	
9.710	-0.268	0.005	
9.715	-0.005	-0.002	
9.720	0.359	-0.001	
9.725	-0.177	0.024	
9.730	-0.135	0.026	
9.735	0.376	0.019	
9.740	-0.009	0.040	
9.745	-0.219	0.049	
9.750	0.264	0.036	
9.755	0.240	0.049	
9.760	-0.225	0.070	
9.765	0.038	0.059	
9.770	0.403	0.055	
9.775	-0.162	0.074	
9.780	-0.135	0.067	
9.785	0.415	0.051	
9.790	0.001	0.065	
9.795	-0.220	0.070	
9.800	0.259	0.051	
9.805	0.192	0.055	
9.810	-0.269	0.064	
9.815	-0.042	0.039	
9.820	0.263	0.015	
9.825	-0.223	0.013	
9.830	-0.185	-0.008	
9.835	0.340	-0.028	
9.840	-0.040	-0.012	
9.845	-0.255	-0.002	
9.850	0.209	-0.012	
9.855	0.162	0.000	
9.860	-0.272	0.018	
9.865	-0.014	0.005	
9.870	0.366	0.001	
9.875	-0.168	0.024	
9.880	-0.159	0.025	
9.885	0.342	0.014	
9.890	-0.034	0.029	
9.895	-0.265	0.031	
9.900	0.206	0.010	
9.905	0.152	0.012	
9.910	-0.286	0.021	
9.915	-0.074	-0.001	
9.920	0.256	-0.020	
9.925	-0.242	-0.017	
9.930	-0.220	-0.032	
9.935	0.250	-0.054	
9.940	-0.081	-0.046	
9.945	-0.287	-0.042	
9.950	0.140	-0.057	
9.955	0.131	-0.047	
9.960	-0.284	-0.029	
9.965	-0.066	-0.038	
9.970	0.276	-0.041	
9.975	-0.220	-0.023	
9.980	-0.164	-0.025	
9.985	0.452	-0.026	
9.990	0.133	0.019	
9.995	-0.161	0.063	
10.000	0.259	0.076	
10.005	0.149	0.092	
10.010	-0.292	0.095	
10.015	-0.104	0.054	
10.020	0.194	0.010	
10.025	-0.240	-0.012	
10.030	-0.207	-0.043	
10.035	0.272	-0.068	
10.040	-0.071	-0.055	
10.045	-0.268	-0.045	
10.050	0.160	-0.053	
10.055	0.110	-0.039	
10.060	-0.303	-0.022	
10.065	-0.075	-0.035	
10.070	0.288	-0.043	
10.075	-0.216	-0.026	
10.080	-0.197	-0.028	
10.085	0.330	-0.037	
10.090	-0.013	-0.014	
10.095	-0.228	0.004	
10.100	0.263	0.002	
10.105	0.252	0.026	
10.110	-0.220	0.058	
10.115	0.033	0.056	
10.120	0.441	0.058	
10.125	-0.119	0.085	
10.130	-0.110	0.087	
10.135	0.444	0.077	
10.140	0.067	0.096	
10.145	-0.188	0.106	
10.150	0.307	0.091	
10.155	0.299	0.101	
10.160	-0.200	0.119	
10.165	-0.006	0.101	
10.170	0.398	0.082	
10.175	-0.139	0.088	
10.180	-0.127	0.074	
10.185	0.420	0.055	
10.190	0.023	0.069	
10.195	-0.211	0.075	
10.200	0.221	0.056	
10.205	0.247	0.058	
10.210	-0.239	0.071	
10.215	-0.016	0.052	
10.220	0.385	0.039	
10.225	-0.141	0.054	
10.230	-0.153	0.049	
10.235	0.418	0.036	
10.240	0.065	0.057	
10.245	-0.217	0.073	
10.250	0.270	0.062	
10.255	0.324	0.076	
10.260	-0.214	0.101	
10.265	0.023	0.090	
10.270	0.382	0.079	
10.275	-0.158	0.087	
10.280	-0.147	0.072	
10.285	0.412	0.049	
10.290	0.004	0.060	
10.295	-0.258	0.062	
10.300	0.127	0.034	
10.305	0.163	0.021	
10.310	-0.278	0.019	
10.315	-0.063	-0.007	
10.320	0.339	-0.021	
10.325	-0.217	-0.006	
10.330	-0.217	-0.012	
10.335	0.279	-0.030	
10.340	-0.054	-0.020	
10.345	-0.252	-0.015	
10.350	0.259	-0.024	
10.355	0.366	0.006	
10.360	-0.136	0.059	
10.365	0.149	0.085	
10.370	0.461	0.111	
10.375	-0.141	0.146	
10.380	-0.176	0.137	
10.385	0.292	0.098	
10.390	-0.045	0.077	
10.395	-0.262	0.050	
10.400	0.175	0.009	
10.405	0.224	0.002	
10.410	-0.251	0.015	
10.415	-0.022	0.005	
10.420	0.385	0.004	
10.425	-0.150	0.030	
10.430	-0.152	0.034	
10.435	0.429	0.029	
10.440	0.075	0.057	
10.445	-0.231	0.076	
10.450	0.194	0.063	
10.455	0.290	0.065	
10.460	-0.222	0.080	
10.465	0.029	0.066	
10.470	0.473	0.062	
10.475	-0.103	0.089	
10.480	-0.109	0.093	
10.485	0.457	0.084	
10.490	0.096	0.106	
10.495	-0.190	0.118	
10.500	0.308	0.103	
10.505	0.368	0.114	
10.510	-0.203	0.137	
10.515	0.027	0.122	
10.520	0.467	0.107	
10.525	-0.107	0.119	
10.530	-0.119	0.110	
10.535	0.444	0.089	
10.540	0.085	0.102	
10.545	-0.207	0.108	
10.550	0.252	0.088	
10.555	0.287	0.089	
10.560	-0.222	0.100	
10.565	-0.016	0.080	
10.570	0.357	0.060	
10.575	-0.167	0.063	
10.580	-0.181	0.046	
10.585	0.350	0.021	
10.590	0.035	0.030	
10.595	-0.226	0.038	
10.600	0.198	0.025	
10.605	0.263	0.034	
10.610	-0.232	0.054	
10.615	-0.023	0.044	
10.620	0.450	0.039	
10.625	-0.150	0.063	
10.630	-0.165	0.062	
10.635	0.385	0.046	
10.640	0.046	0.060	
10.645	-0.240	0.066	
10.650	0.148	0.044	
10.655	0.204	0.037	
10.660	-0.271	0.040	
10.665	-0.092	0.014	
10.670	0.307	-0.008	
10.675	-0.207	-0.003	
10.680	-0.226	-0.015	
10.685	0.275	-0.036	
10.690	-0.032	-0.026	
10.695	-0.297	-0.021	
10.700	0.065	-0.040	
10.705	0.143	-0.043	
10.710	-0.287	-0.034	
10.715	-0.101	-0.047	
10.720	0.296	-0.054	
10.725	-0.150	-0.032	
10.730	-0.101	-0.020	
10.735	0.567	-0.000	
10.740	0.264	0.069	
10.745	-0.156	0.134	
10.750	0.224	0.149	
10.755	0.198	0.152	
10.760	-0.301	0.140	
10.765	-0.133	0.083	
10.770	0.250	0.026	
10.775	-0.196	0.000	
10.780	-0.207	-0.028	
10.785	0.319	-0.050	
10.790	0.013	-0.031	
10.795	-0.249	-0.012	
10.800	0.189	-0.014	
10.805	0.256	0.006	
10.810	-0.242	0.035	
10.815	-0.028	0.032	
10.820	0.391	0.028	
10.825	-0.141	0.050	
10.830	-0.147	0.049	
10.835	0.408	0.039	
10.840	0.079	0.061	
10.845	-0.194	0.078	
10.850	0.288	0.071	
10.855	0.363	0.089	
10.860	-0.185	0.119	
10.865	0.027	0.113	
10.870	0.508	0.107	
10.875	-0.081	0.128	
10.880	-0.116	0.126	
10.885	0.470	0.109	
10.890	0.130	0.124	
10.895	-0.208	0.133	
10.900	0.258	0.111	
10.905	0.359	0.111	
10.910	-0.214	0.125	
10.915	-0.017	0.105	
10.920	0.391	0.083	
10.925	-0.126	0.086	
10.930	-0.148	0.071	
10.935	0.432	0.051	
10.940	0.082	0.069	
10.945	-0.222	0.082	
10.950	0.209	0.066	
10.955	0.308	0.070	
10.960	-0.222	0.086	
10.965	-0.029	0.071	
10.970	0.460	0.059	
10.975	-0.066	0.080	
10.980	-0.129	0.085	
10.985	0.443	0.077	
10.990	0.127	0.100	
10.995	-0.181	0.116	
11.000	0.282	0.105	
11.005	0.343	0.114	
11.010	-0.197	0.133	
11.015	-0.005	0.115	
11.020	0.461	0.097	
11.025	-0.110	0.107	
11.030	-0.162	0.096	
11.035	0.382	0.070	
11.040	0.044	0.075	
11.045	-0.248	0.073	
11.050	0.117	0.044	
11.055	0.177	0.028	
11.060	-0.281	0.025	
11.065	-0.097	-0.004	
11.070	0.322	-0.025	
11.075	-0.168	-0.013	
11.080	-0.196	-0.014	
11.085	0.319	-0.023	
11.090	0.026	-0.002	
11.095	-0.266	0.014	
11.100	0.119	0.001	
11.105	0.292	0.007	
11.110	-0.177	0.032	
11.115	0.108	0.041	
11.120	0.748	0.074	
11.125	0.119	0.156	
11.130	-0.028	0.212	
11.135	0.507	0.227	
11.140	0.114	0.243	
11.145	-0.251	0.228	
11.150	0.136	0.167	
11.155	0.276	0.120	
11.160	-0.234	0.096	
11.165	-0.064	0.054	
11.170	0.409	0.026	
11.175	-0.106	0.037	
11.180	-0.170	0.037	
11.185	0.351	0.026	
11.190	0.047	0.042	
11.195	-0.242	0.052	
11.200	0.178	0.035	
11.205	0.302	0.040	
11.210	-0.216	0.061	
11.215	-0.019	0.053	
11.220	0.469	0.049	
11.225	-0.078	0.077	
11.230	-0.129	0.085	
11.235	0.482	0.080	
11.240	0.146	0.108	
11.245	-0.184	0.129	
11.250	0.241	0.117	
11.255	0.391	0.121	
11.260	-0.156	0.141	
11.265	0.001	0.128	
11.270	0.499	0.114	
11.275	-0.072	0.129	
11.280	-0.121	0.123	
11.285	0.473	0.105	
11.290	0.183	0.123	
11.295	-0.188	0.140	
11.300	0.204	0.122	
11.305	0.301	0.115	
11.310	-0.228	0.117	
11.315	-0.060	0.087	
11.320	0.402	0.058	
11.325	-0.103	0.063	
11.330	-0.187	0.054	
11.335	0.362	0.035	
11.340	0.076	0.047	
11.345	-0.246	0.057	
11.350	0.183	0.040	
11.355	0.333	0.046	
11.360	-0.207	0.069	
11.365	-0.045	0.063	
11.370	0.434	0.054	
11.375	-0.100	0.073	
11.380	-0.156	0.073	
11.385	0.398	0.058	
11.390	0.108	0.075	
11.395	-0.234	0.087	
11.400	0.166	0.068	
11.405	0.299	0.064	
11.410	-0.226	0.076	
11.415	-0.077	0.056	
11.420	0.350	0.035	
11.425	-0.152	0.040	
11.430	-0.229	0.027	
11.435	0.270	-0.001	
11.440	0.012	0.001	
11.445	-0.278	0.002	
11.450	0.033	-0.021	
11.455	0.157	-0.031	
11.460	-0.287	-0.028	
11.465	-0.155	-0.047	
11.470	0.243	-0.064	
11.475	-0.188	-0.054	
11.480	-0.260	-0.058	
11.485	0.218	-0.071	
11.490	0.023	-0.056	
11.495	-0.223	-0.036	
11.500	0.256	-0.027	
11.505	0.463	0.017	
11.510	-0.156	0.083	
11.515	-0.054	0.104	
11.520	0.363	0.100	
11.525	-0.181	0.102	
11.530	-0.277	0.072	
11.535	0.186	0.018	
11.540	-0.031	-0.008	
11.545	-0.315	-0.029	
11.550	0.035	-0.062	
11.555	0.188	-0.070	
11.560	-0.283	-0.055	
11.565	-0.139	-0.061	
11.570	0.299	-0.065	
11.575	-0.158	-0.041	
11.580	-0.239	-0.034	
11.585	0.263	-0.041	
11.590	0.020	-0.023	
11.595	-0.280	-0.009	
11.600	0.088	-0.021	
11.605	0.252	-0.016	
11.610	-0.245	0.005	
11.615	-0.109	-0.001	
11.620	0.353	-0.009	
11.625	-0.122	0.010	
11.630	-0.193	0.014	
11.635	0.342	0.006	
11.640	0.079	0.027	
11.645	-0.252	0.044	
11.650	0.110	0.029	
11.655	0.288	0.029	
11.660	-0.211	0.045	
11.665	-0.068	0.035	
11.670	0.392	0.026	
11.675	-0.107	0.045	
11.680	-0.196	0.045	
11.685	0.325	0.029	
11.690	0.078	0.040	
11.695	-0.257	0.049	
11.700	0.087	0.028	
11.705	0.282	0.021	
11.710	-0.222	0.034	
11.715	-0.078	0.023	
11.720	0.360	0.013	
11.725	-0.121	0.029	
11.730	-0.197	0.028	
11.735	0.340	0.015	
11.740	0.122	0.033	
11.745	-0.245	0.052	
11.750	0.139	0.041	
11.755	0.305	0.043	
11.760	-0.203	0.062	
11.765	-0.048	0.053	
11.770	0.449	0.045	
11.775	-0.066	0.070	
11.780	-0.176	0.075	
11.785	0.340	0.060	
11.790	0.102	0.070	
11.795	-0.268	0.075	
11.800	0.029	0.044	
11.805	0.172	0.020	
11.810	-0.284	0.008	
11.815	-0.164	-0.025	
11.820	0.269	-0.053	
11.825	-0.190	-0.048	
11.830	-0.275	-0.055	
11.835	0.175	-0.074	
11.840	-0.037	-0.068	
11.845	-0.327	-0.063	
11.850	-0.011	-0.081	
11.855	0.146	-0.085	
11.860	-0.306	-0.072	
11.865	-0.181	-0.082	
11.870	0.282	-0.090	
11.875	-0.122	-0.065	
11.880	-0.170	-0.047	
11.885	0.420	-0.031	
11.890	0.140	0.020	
11.895	-0.272	0.061	
11.900	0.009	0.051	
11.905	0.127	0.032	
11.910	-0.317	0.013	
11.915	-0.197	-0.030	
11.920	0.261	-0.067	
11.925	-0.185	-0.066	
11.930	-0.260	-0.071	
11.935	0.232	-0.082	
11.940	0.032	-0.061	
11.945	-0.295	-0.040	
11.950	0.030	-0.046	
11.955	0.233	-0.041	
11.960	-0.252	-0.020	
11.965	-0.115	-0.023	
11.970	0.386	-0.025	
11.975	-0.089	0.005	
11.980	-0.197	0.019	
11.985	0.347	0.016	
11.990	0.119	0.040	
11.995	-0.225	0.061	
12.000	0.130	0.051	
12.005	0.311	0.052	
12.010	-0.220	0.068	
12.015	-0.081	0.053	
12.020	0.432	0.039	
12.025	-0.084	0.057	
12.030	-0.200	0.058	
12.035	0.321	0.040	
12.040	0.117	0.050	
12.045	-0.266	0.059	
12.050	0.050	0.035	
12.055	0.278	0.023	
12.060	-0.213	0.030	
12.065	-0.100	0.017	
12.070	0.359	0.005	
12.075	-0.106	0.022	
12.080	-0.210	0.023	
12.085	0.310	0.010	
12.090	0.087	0.024	
12.095	-0.281	0.036	
12.100	0.039	0.015	
12.105	0.273	0.005	
12.110	-0.232	0.016	
12.115	-0.121	0.004	
12.120	0.339	-0.009	
12.125	-0.104	0.007	
12.130	-0.211	0.010	
12.135	0.331	0.001	
12.140	0.111	0.022	
12.145	-0.251	0.042	
12.150	0.099	0.031	
12.155	0.308	0.032	
12.160	-0.226	0.049	
12.165	-0.110	0.036	
12.170	0.348	0.019	
12.175	-0.122	0.028	
12.180	-0.222	0.022	
12.185	0.281	0.002	
12.190	0.061	0.010	
12.195	-0.281	0.018	
12.200	0.020	-0.004	
12.205	0.238	-0.014	
12.210	-0.275	-0.006	
12.215	-0.162	-0.023	
12.220	0.288	-0.042	
12.225	-0.144	-0.030	
12.230	-0.258	-0.031	
12.235	0.195	-0.047	
12.240	0.018	-0.040	
12.245	-0.295	-0.031	
12.250	0.047	-0.046	
12.255	0.353	-0.037	
12.260	-0.170	0.000	
12.265	-0.031	0.018	
12.270	0.493	0.036	
12.275	-0.081	0.078	
12.280	-0.222	0.089	
12.285	0.259	0.066	
12.290	0.023	0.057	
12.295	-0.315	0.042	
12.300	-0.017	-0.002	
12.305	0.220	-0.029	
12.310	-0.243	-0.029	
12.315	-0.104	-0.041	
12.320	0.395	-0.042	
12.325	-0.106	-0.007	
12.330	-0.229	0.009	
12.335	0.269	0.001	
12.340	0.044	0.014	
12.345	-0.298	0.020	
12.350	0.015	-0.005	
12.355	0.214	-0.019	
12.360	-0.265	-0.015	
12.365	-0.135	-0.030	
12.370	0.356	-0.041	
12.375	-0.110	-0.017	
12.380	-0.213	-0.005	
12.385	0.327	-0.009	
12.390	0.136	0.018	
12.395	-0.252	0.044	
12.400	0.087	0.035	
12.405	0.342	0.037	
12.410	-0.222	0.056	
12.415	-0.100	0.046	
12.420	0.431	0.033	
12.425	-0.077	0.052	
12.430	-0.199	0.055	
12.435	0.321	0.040	
12.440	0.154	0.052	
12.445	-0.237	0.067	
12.450	0.099	0.051	
12.455	0.336	0.048	
12.460	-0.210	0.063	
12.465	-0.110	0.050	
12.470	0.409	0.034	
12.475	-0.098	0.047	
12.480	-0.222	0.045	
12.485	0.293	0.024	
12.490	0.134	0.032	
12.495	-0.246	0.045	
12.500	0.088	0.030	
12.505	0.357	0.031	
12.510	-0.184	0.054	
12.515	-0.061	0.052	
12.520	0.467	0.049	
12.525	-0.032	0.077	
12.530	-0.158	0.088	
12.535	0.412	0.080	
12.540	0.236	0.103	
12.545	-0.216	0.126	
12.550	0.146	0.112	
12.555	0.379	0.106	
12.560	-0.203	0.115	
12.565	-0.110	0.092	
12.570	0.371	0.061	
12.575	-0.107	0.059	
12.580	-0.245	0.043	
12.585	0.235	0.011	
12.590	0.015	0.004	
12.595	-0.301	-0.002	
12.600	0.018	-0.031	
12.605	0.238	-0.040	
12.610	-0.243	-0.026	
12.615	-0.136	-0.032	
12.620	0.354	-0.036	
12.625	-0.122	-0.011	
12.630	-0.225	-0.002	
12.635	0.296	-0.010	
12.640	0.192	0.014	
12.645	-0.173	0.046	
12.650	0.252	0.058	
12.655	0.435	0.089	
12.660	-0.231	0.129	
12.665	-0.164	0.116	
12.670	0.302	0.076	
12.675	-0.135	0.057	
12.680	-0.248	0.027	
12.685	0.255	-0.010	
12.690	0.113	-0.009	
12.695	-0.254	0.003	
12.700	0.094	-0.005	
12.705	0.316	0.004	
12.710	-0.211	0.031	
12.715	-0.109	0.029	
12.720	0.400	0.021	
12.725	-0.063	0.042	
12.730	-0.188	0.049	
12.735	0.363	0.040	
12.740	0.229	0.063	
12.745	-0.207	0.091	
12.750	0.151	0.087	
12.755	0.418	0.092	
12.760	-0.145	0.117	
12.765	-0.040	0.111	
12.770	0.527	0.102	
12.775	0.024	0.126	
12.780	-0.126	0.136	
12.785	0.417	0.124	
12.790	0.244	0.139	
12.795	-0.187	0.154	
12.800	0.209	0.137	
12.805	0.464	0.135	
12.810	-0.129	0.156	
12.815	-0.031	0.145	
12.820	0.525	0.129	
12.825	-0.029	0.143	
12.830	-0.165	0.137	
12.835	0.386	0.110	
12.840	0.246	0.116	
12.845	-0.211	0.128	
12.850	0.093	0.107	
12.855	0.337	0.091	
12.860	-0.200	0.092	
12.865	-0.110	0.068	
12.870	0.398	0.043	
12.875	-0.063	0.051	
12.880	-0.193	0.049	
12.885	0.331	0.034	
12.890	0.188	0.051	
12.895	-0.217	0.072	
12.900	0.125	0.064	
12.905	0.382	0.067	
12.910	-0.170	0.089	
12.915	-0.060	0.083	
12.920	0.492	0.074	
12.925	-0.005	0.098	
12.930	-0.176	0.106	
12.935	0.372	0.091	
12.940	0.195	0.102	
12.945	-0.231	0.113	
12.950	0.110	0.091	
12.955	0.302	0.076	
12.960	-0.232	0.077	
12.965	-0.148	0.049	
12.970	0.319	0.017	
12.975	-0.126	0.014	
12.980	-0.271	0.001	
12.985	0.194	-0.027	
12.990	0.065	-0.028	
12.995	-0.278	-0.021	
13.000	-0.022	-0.037	
13.005	0.244	-0.042	
13.010	-0.246	-0.026	
13.015	-0.147	-0.032	
13.020	0.348	-0.038	
13.025	-0.077	-0.012	
13.030	-0.159	0.005	
13.035	0.507	0.017	
13.040	0.453	0.080	
13.045	-0.126	0.156	
13.050	0.177	0.182	
13.055	0.345	0.188	
13.060	-0.232	0.185	
13.065	-0.174	0.136	
13.070	0.313	0.074	
13.075	-0.100	0.047	
13.080	-0.232	0.019	
13.085	0.282	-0.011	
13.090	0.114	-0.003	
13.095	-0.274	0.012	
13.100	0.058	0.000	
13.105	0.284	-0.000	
13.110	-0.217	0.019	
13.115	-0.124	0.012	
13.120	0.392	0.003	
13.125	-0.048	0.026	
13.130	-0.173	0.039	
13.135	0.359	0.036	
13.140	0.220	0.063	
13.145	-0.217	0.092	
13.150	0.113	0.084	
13.155	0.382	0.083	
13.160	-0.156	0.100	
13.165	-0.083	0.090	
13.170	0.432	0.073	
13.175	-0.032	0.086	
13.180	-0.170	0.085	
13.185	0.385	0.070	
13.190	0.253	0.089	
13.195	-0.216	0.113	
13.200	0.107	0.101	
13.205	0.394	0.094	
13.210	-0.179	0.106	
13.215	-0.084	0.091	
13.220	0.417	0.069	
13.225	-0.061	0.078	
13.230	-0.205	0.072	
13.235	0.278	0.047	
13.240	0.120	0.047	
13.245	-0.262	0.051	
13.250	-0.006	0.024	
13.255	0.282	0.007	
13.260	-0.231	0.012	
13.265	-0.144	-0.002	
13.270	0.366	-0.016	
13.275	-0.075	0.004	
13.280	-0.213	0.013	
13.285	0.281	0.005	
13.290	0.152	0.023	
13.295	-0.258	0.043	
13.300	0.050	0.030	
13.305	0.330	0.026	
13.310	-0.197	0.043	
13.315	-0.116	0.035	
13.320	0.408	0.024	
13.325	-0.063	0.043	
13.330	-0.211	0.048	
13.335	0.281	0.032	
13.340	0.128	0.040	
13.345	-0.304	0.048	
13.350	-0.034	0.019	
13.355	0.223	-0.006	
13.360	-0.246	-0.009	
13.365	-0.174	-0.030	
13.370	0.304	-0.048	
13.375	-0.116	-0.033	
13.380	-0.260	-0.029	
13.385	0.203	-0.041	
13.390	0.088	-0.029	
13.395	-0.283	-0.013	
13.400	0.013	-0.024	
13.405	0.250	-0.026	
13.410	-0.262	-0.010	
13.415	-0.179	-0.021	
13.420	0.350	-0.035	
13.425	-0.013	-0.012	
13.430	-0.116	0.011	
13.435	0.577	0.036	
13.440	0.452	0.110	
13.445	-0.148	0.188	
13.450	0.156	0.206	
13.455	0.301	0.198	
13.460	-0.225	0.182	
13.465	-0.150	0.127	
13.470	0.331	0.067	
13.475	-0.075	0.046	
13.480	-0.232	0.024	
13.485	0.235	-0.005	
13.490	0.111	-0.002	
13.495	-0.275	0.008	
13.500	0.000	-0.009	
13.505	0.296	-0.014	
13.510	-0.220	0.003	
13.515	-0.136	-0.003	
13.520	0.369	-0.010	
13.525	-0.068	0.013	
13.530	-0.210	0.023	
13.535	0.325	0.016	
13.540	0.201	0.039	
13.545	-0.213	0.067	
13.550	0.125	0.064	
13.555	0.426	0.072	
13.560	-0.138	0.101	
13.565	-0.055	0.102	
13.570	0.508	0.095	
13.575	0.032	0.120	
13.580	-0.148	0.130	
13.585	0.415	0.117	
13.590	0.295	0.135	
13.595	-0.207	0.155	
13.600	0.114	0.137	
13.605	0.418	0.122	
13.610	-0.161	0.129	
13.615	-0.092	0.109	
13.620	0.420	0.082	
13.625	-0.042	0.087	
13.630	-0.213	0.079	
13.635	0.256	0.050	
13.640	0.136	0.047	
13.645	-0.260	0.049	
13.650	0.007	0.024	
13.655	0.313	0.010	
13.660	-0.205	0.021	
13.665	-0.142	0.012	
13.670	0.374	-0.000	
13.675	-0.060	0.019	
13.680	-0.239	0.026	
13.685	0.249	0.011	
13.690	0.154	0.021	
13.695	-0.251	0.036	
13.700	0.072	0.024	
13.705	0.348	0.025	
13.710	-0.182	0.048	
13.715	-0.098	0.045	
13.720	0.441	0.038	
13.725	-0.045	0.062	
13.730	-0.207	0.069	
13.735	0.264	0.051	
13.740	0.145	0.054	
13.745	-0.263	0.059	
13.750	0.015	0.034	
13.755	0.308	0.018	
13.760	-0.211	0.027	
13.765	-0.152	0.014	
13.770	0.327	-0.004	
13.775	-0.074	0.008	
13.780	-0.226	0.010	
13.785	0.230	-0.004	
13.790	0.139	0.007	
13.795	-0.269	0.022	
13.800	-0.009	0.006	
13.805	0.276	-0.003	
13.810	-0.222	0.008	
13.815	-0.106	-0.001	
13.820	0.533	-0.000	
13.825	0.157	0.051	
13.830	-0.061	0.104	
13.835	0.513	0.135	
13.840	0.263	0.183	
13.845	-0.245	0.209	
13.850	-0.019	0.172	
13.855	0.249	0.120	
13.860	-0.223	0.085	
13.865	-0.158	0.035	
13.870	0.389	-0.003	
13.875	-0.046	0.006	
13.880	-0.217	0.013	
13.885	0.287	0.005	
13.890	0.189	0.025	
13.895	-0.239	0.050	
13.900	0.042	0.042	
13.905	0.379	0.041	
13.910	-0.159	0.062	
13.915	-0.089	0.060	
13.920	0.457	0.053	
13.925	-0.011	0.078	
13.930	-0.184	0.087	
13.935	0.353	0.074	
13.940	0.256	0.090	
13.945	-0.207	0.112	
13.950	0.090	0.099	
13.955	0.438	0.093	
13.960	-0.130	0.112	
13.965	-0.045	0.106	
13.970	0.463	0.095	
13.975	0.013	0.114	
13.980	-0.159	0.117	
13.985	0.406	0.102	
13.990	0.311	0.120	
13.995	-0.194	0.145	
14.000	0.127	0.133	
14.005	0.464	0.127	
14.010	-0.135	0.143	
14.015	-0.083	0.129	
14.020	0.475	0.107	
14.025	0.015	0.117	
14.030	-0.187	0.115	
14.035	0.282	0.089	
14.040	0.192	0.086	
14.045	-0.237	0.089	
14.050	-0.017	0.060	
14.055	0.334	0.038	
14.060	-0.208	0.040	
14.065	-0.152	0.023	
14.070	0.371	0.004	
14.075	-0.035	0.020	
14.080	-0.219	0.027	
14.085	0.290	0.018	
14.090	0.220	0.036	
14.095	-0.223	0.062	
14.100	0.056	0.056	
14.105	0.383	0.055	
14.110	-0.159	0.075	
14.115	-0.106	0.069	
14.120	0.414	0.055	
14.125	-0.038	0.070	
14.130	-0.216	0.070	
14.135	0.200	0.044	
14.140	0.099	0.037	
14.145	-0.292	0.031	
14.150	-0.032	-0.001	
14.155	0.259	-0.021	
14.160	-0.231	-0.016	
14.165	-0.167	-0.027	
14.170	0.330	-0.038	
14.175	-0.075	-0.018	
14.180	-0.251	-0.007	
14.185	0.194	-0.019	
14.190	0.111	-0.009	
14.195	-0.278	0.003	
14.200	-0.006	-0.012	
14.205	0.397	-0.012	
14.210	-0.138	0.020	
14.215	-0.038	0.036	
14.220	0.541	0.052	
14.225	0.021	0.099	
14.230	-0.240	0.120	
14.235	0.191	0.096	
14.240	0.091	0.077	
14.245	-0.300	0.057	
14.250	-0.049	0.011	
14.255	0.267	-0.020	
14.260	-0.220	-0.019	
14.265	-0.152	-0.030	
14.270	0.357	-0.038	
14.275	-0.058	-0.011	
14.280	-0.236	0.004	
14.285	0.256	-0.002	
14.290	0.198	0.018	
14.295	-0.245	0.043	
14.300	0.017	0.035	
14.305	0.336	0.030	
14.310	-0.158	0.047	
14.315	-0.127	0.041	
14.320	0.398	0.030	
14.325	-0.026	0.049	
14.330	-0.207	0.056	
14.335	0.313	0.043	
14.340	0.243	0.059	
14.345	-0.222	0.083	
14.350	0.059	0.073	
14.355	0.403	0.068	
14.360	-0.155	0.086	
14.365	-0.101	0.079	
14.370	0.417	0.063	
14.375	-0.023	0.077	
14.380	-0.207	0.077	
14.385	0.279	0.055	
14.390	0.188	0.060	
14.395	-0.243	0.070	
14.400	0.020	0.049	
14.405	0.394	0.038	
14.410	-0.193	0.054	
14.415	-0.148	0.046	
14.420	0.382	0.028	
14.425	-0.046	0.041	
14.430	-0.231	0.042	
14.435	0.223	0.022	
14.440	0.152	0.025	
14.445	-0.266	0.034	
14.450	-0.009	0.014	
14.455	0.342	0.004	
14.460	-0.194	0.021	
14.465	-0.152	0.016	
14.470	0.362	0.004	
14.475	-0.066	0.021	
14.480	-0.229	0.026	
14.485	0.235	0.010	
14.490	0.208	0.021	
14.495	-0.258	0.040	
14.500	-0.028	0.027	
14.505	0.295	0.015	
14.510	-0.208	0.022	
14.515	-0.162	0.009	
14.520	0.302	-0.010	
14.525	-0.086	-0.001	
14.530	-0.275	-0.003	
14.535	0.154	-0.026	
14.540	0.096	-0.026	
14.545	-0.307	-0.020	
14.550	-0.077	-0.041	
14.555	0.240	-0.053	
14.560	-0.236	-0.042	
14.565	-0.193	-0.048	
14.570	0.273	-0.059	
14.575	-0.112	-0.042	
14.580	-0.292	-0.037	
14.585	0.142	-0.053	
14.590	0.139	-0.045	
14.595	-0.234	-0.025	
14.600	0.078	-0.022	
14.605	0.473	0.002	
14.610	-0.147	0.054	
14.615	-0.155	0.071	
14.620	0.284	0.058	
14.625	-0.127	0.054	
14.630	-0.321	0.029	
14.635	0.111	-0.019	
14.640	0.047	-0.042	
14.645	-0.317	-0.050	
14.650	-0.063	-0.075	
14.655	0.287	-0.081	
14.660	-0.214	-0.055	
14.665	-0.188	-0.047	
14.670	0.296	-0.048	
14.675	-0.068	-0.024	
14.680	-0.284	-0.014	
14.685	0.136	-0.029	
14.690	0.119	-0.026	
14.695	-0.297	-0.017	
14.700	-0.046	-0.033	
14.705	0.322	-0.038	
14.710	-0.185	-0.014	
14.715	-0.142	-0.009	
14.720	0.427	-0.006	
14.725	0.007	0.029	
14.730	-0.190	0.053	
14.735	0.327	0.053	
14.740	0.281	0.077	
14.745	-0.200	0.107	
14.750	0.070	0.099	
14.755	0.437	0.095	
14.760	-0.130	0.112	
14.765	-0.089	0.104	
14.770	0.438	0.087	
14.775	0.036	0.101	
14.780	-0.222	0.102	
14.785	0.247	0.077	
14.790	0.195	0.071	
14.795	-0.254	0.073	
14.800	0.009	0.047	
14.805	0.359	0.031	
14.810	-0.181	0.042	
14.815	-0.142	0.034	
14.820	0.388	0.020	
14.825	-0.040	0.036	
14.830	-0.242	0.041	
14.835	0.230	0.022	
14.840	0.201	0.028	
14.845	-0.239	0.044	
14.850	0.030	0.033	
14.855	0.414	0.032	
14.860	-0.155	0.058	
14.865	-0.124	0.059	
14.870	0.475	0.052	
14.875	0.036	0.079	
14.880	-0.197	0.094	
14.885	0.322	0.082	
14.890	0.270	0.094	
14.895	-0.220	0.112	
14.900	0.015	0.093	
14.905	0.334	0.074	
14.910	-0.197	0.073	
14.915	-0.174	0.048	
14.920	0.301	0.016	
14.925	-0.080	0.013	
14.930	-0.265	0.003	
14.935	0.172	-0.022	
14.940	0.113	-0.022	
14.945	-0.300	-0.013	
14.950	-0.069	-0.032	
14.955	0.270	-0.043	
14.960	-0.220	-0.029	
14.965	-0.194	-0.034	
14.970	0.302	-0.044	
14.975	-0.054	-0.024	
14.980	-0.245	-0.013	
14.985	0.282	-0.016	
14.990	0.328	0.015	
14.995	-0.174	0.062	
15.000	0.082	0.077	
15.005	0.382	0.087	
15.010	-0.188	0.107	
15.015	-0.168	0.089	
15.020	0.330	0.055	
15.025	-0.040	0.049	
15.030	-0.231	0.038	
15.035	0.236	0.013	
15.040	0.189	0.018	
15.045	-0.257	0.034	
15.050	-0.016	0.020	
15.055	0.319	0.011	
15.060	-0.187	0.024	
15.065	-0.126	0.018	
15.070	0.440	0.012	
15.075	0.001	0.041	
15.080	-0.210	0.059	
15.085	0.287	0.051	
15.090	0.263	0.066	
15.095	-0.211	0.089	
15.100	0.082	0.081	
15.105	0.450	0.080	
15.110	-0.129	0.104	
15.115	-0.083	0.102	
15.120	0.495	0.092	
15.125	0.078	0.115	
15.130	-0.159	0.128	
15.135	0.371	0.116	
15.140	0.330	0.132	
15.145	-0.193	0.153	
15.150	0.096	0.138	
15.155	0.444	0.125	
15.160	-0.121	0.135	
15.165	-0.097	0.121	
15.170	0.479	0.099	
15.175	0.053	0.112	
15.180	-0.182	0.116	
15.185	0.282	0.096	
15.190	0.256	0.097	
15.195	-0.245	0.106	
15.200	0.009	0.080	
15.205	0.368	0.059	
15.210	-0.162	0.065	
15.215	-0.130	0.052	
15.220	0.415	0.035	
15.225	0.003	0.053	
15.230	-0.225	0.061	
15.235	0.266	0.045	
15.240	0.229	0.054	
15.245	-0.243	0.070	
15.250	-0.002	0.054	
15.255	0.397	0.042	
15.260	-0.141	0.059	
15.265	-0.103	0.057	
15.270	0.464	0.051	
15.275	0.046	0.079	
15.280	-0.205	0.094	
15.285	0.278	0.080	
15.290	0.249	0.086	
15.295	-0.236	0.098	
15.300	0.001	0.076	
15.305	0.325	0.055	
15.310	-0.205	0.055	
15.315	-0.181	0.033	
15.320	0.292	0.003	
15.325	-0.068	0.003	
15.330	-0.257	-0.002	
15.335	0.203	-0.021	
15.340	0.185	-0.012	
15.345	-0.242	0.010	
15.350	0.000	0.006	
15.355	0.331	0.006	
15.360	-0.193	0.027	
15.365	-0.158	0.023	
15.370	0.421	0.012	
15.375	0.099	0.041	
15.380	-0.107	0.071	
15.385	0.522	0.092	
15.390	0.415	0.147	
15.395	-0.197	0.201	
15.400	-0.020	0.190	
15.405	0.310	0.153	
15.410	-0.222	0.124	
15.415	-0.188	0.072	
15.420	0.308	0.020	
15.425	-0.035	0.009	
15.430	-0.226	0.002	
15.435	0.236	-0.013	
15.440	0.212	0.003	
15.445	-0.243	0.030	
15.450	0.001	0.025	
15.455	0.389	0.025	
15.460	-0.136	0.050	
15.465	-0.132	0.052	
15.470	0.429	0.045	
15.475	0.036	0.068	
15.480	-0.190	0.082	
15.485	0.318	0.072	
15.490	0.287	0.088	
15.495	-0.205	0.111	
15.500	0.061	0.099	
15.505	0.437	0.091	
15.510	-0.104	0.109	
15.515	-0.081	0.104	
15.520	0.495	0.093	
15.525	0.090	0.117	
15.530	-0.162	0.130	
15.535	0.340	0.118	
15.540	0.343	0.130	
15.545	-0.161	0.152	
15.550	0.093	0.140	
15.555	0.476	0.131	
15.560	-0.115	0.146	
15.565	-0.113	0.132	
15.570	0.444	0.106	
15.575	0.038	0.111	
15.580	-0.211	0.107	
15.585	0.243	0.079	
15.590	0.217	0.073	
15.595	-0.240	0.077	
15.600	-0.020	0.052	
15.605	0.348	0.033	
15.610	-0.176	0.040	
15.615	-0.147	0.030	
15.620	0.369	0.014	
15.625	0.001	0.032	
15.630	-0.217	0.041	
15.635	0.275	0.031	
15.640	0.270	0.048	
15.645	-0.217	0.075	
15.650	0.032	0.069	
15.655	0.429	0.065	
15.660	-0.135	0.087	
15.665	-0.126	0.083	
15.670	0.429	0.067	
15.675	0.027	0.082	
15.680	-0.239	0.086	
15.685	0.188	0.060	
15.690	0.178	0.050	
15.695	-0.266	0.049	
15.700	-0.052	0.021	
15.705	0.305	0.000	
15.710	-0.197	0.007	
15.715	-0.184	-0.004	
15.720	0.288	-0.021	
15.725	-0.049	-0.010	
15.730	-0.272	-0.006	
15.735	0.134	-0.025	
15.740	0.154	-0.022	
15.745	-0.304	-0.010	
15.750	-0.086	-0.028	
15.755	0.235	-0.042	
15.760	-0.226	-0.034	
15.765	-0.177	-0.042	
15.770	0.467	-0.044	
15.775	0.178	0.007	
15.780	-0.075	0.065	
15.785	0.469	0.104	
15.790	0.334	0.160	
15.795	-0.239	0.199	
15.800	-0.068	0.172	
15.805	0.233	0.120	
15.810	-0.223	0.081	
15.815	-0.202	0.027	
15.820	0.293	-0.019	
15.825	-0.057	-0.024	
15.830	-0.283	-0.026	
15.835	0.124	-0.046	
15.840	0.160	-0.041	
15.845	-0.258	-0.023	
15.850	-0.035	-0.028	
15.855	0.333	-0.025	
15.860	-0.164	0.003	
15.865	-0.139	0.010	
15.870	0.383	0.008	
15.875	-0.006	0.035	
15.880	-0.228	0.048	
15.885	0.226	0.035	
15.890	0.255	0.044	
15.895	-0.243	0.063	
15.900	-0.011	0.050	
15.905	0.394	0.040	
15.910	-0.145	0.057	
15.915	-0.136	0.053	
15.920	0.417	0.041	
15.925	0.046	0.062	
15.930	-0.210	0.075	
15.935	0.247	0.061	
15.940	0.259	0.069	
15.945	-0.231	0.084	
15.950	0.009	0.067	
15.955	0.359	0.053	
15.960	-0.185	0.062	
15.965	-0.167	0.046	
15.970	0.359	0.023	
15.975	-0.017	0.031	
15.980	-0.254	0.033	
15.985	0.160	0.011	
15.990	0.172	0.009	
15.995	-0.260	0.018	
16.000	-0.063	-0.000	
16.005	0.285	-0.014	
16.010	-0.199	-0.003	
16.015	-0.181	-0.011	
16.020	0.311	-0.025	
16.025	-0.038	-0.008	
16.030	-0.242	0.001	
16.035	0.188	-0.010	
16.040	0.183	0.001	
16.045	-0.258	0.020	
16.050	-0.045	0.008	
16.055	0.330	-0.000	
16.060	-0.197	0.015	
16.065	-0.193	0.008	
16.070	0.305	-0.010	
16.075	-0.042	0.001	
16.080	-0.274	0.003	
16.085	0.114	-0.018	
16.090	0.090	-0.023	
16.095	-0.318	-0.022	
16.100	-0.112	-0.048	
16.105	0.178	-0.069	
16.110	-0.283	-0.068	
16.115	-0.266	-0.085	
16.120	0.171	-0.108	
16.125	-0.121	-0.101	
16.130	-0.313	-0.097	
16.135	0.065	-0.108	
16.140	0.078	-0.099	
16.145	-0.309	-0.080	
16.150	-0.112	-0.086	
16.155	0.203	-0.088	
16.160	-0.239	-0.071	
16.165	-0.181	-0.070	
16.170	0.473	-0.062	
16.175	0.175	-0.004	
16.180	-0.121	0.058	
16.185	0.354	0.091	
16.190	0.233	0.128	
16.195	-0.294	0.147	
16.200	-0.122	0.108	
16.205	0.159	0.051	
16.210	-0.265	0.010	
16.215	-0.255	-0.041	
16.220	0.191	-0.085	
16.225	-0.127	-0.091	
16.230	-0.336	-0.096	
16.235	0.046	-0.115	
16.240	0.093	-0.111	
16.245	-0.294	-0.091	
16.250	-0.097	-0.091	
16.255	0.243	-0.086	
16.260	-0.217	-0.060	
16.265	-0.194	-0.054	
16.270	0.275	-0.056	
16.275	-0.054	-0.033	
16.280	-0.257	-0.020	
16.285	0.186	-0.027	
16.290	0.181	-0.012	
16.295	-0.258	0.011	
16.300	-0.031	0.003	
16.305	0.363	0.001	
16.310	-0.152	0.025	
16.315	-0.136	0.028	
16.320	0.438	0.026	
16.325	0.068	0.057	
16.330	-0.187	0.080	
16.335	0.269	0.074	
16.340	0.252	0.086	
16.345	-0.222	0.101	
16.350	0.000	0.081	
16.355	0.435	0.066	
16.360	-0.156	0.079	
16.365	-0.162	0.070	
16.370	0.356	0.046	
16.375	-0.025	0.050	
16.380	-0.257	0.045	
16.385	0.172	0.018	
16.390	0.185	0.013	
16.395	-0.255	0.022	
16.400	-0.037	0.005	
16.405	0.339	-0.003	
16.410	-0.185	0.014	
16.415	-0.181	0.010	
16.420	0.334	-0.003	
16.425	-0.009	0.013	
16.430	-0.243	0.022	
16.435	0.185	0.008	
16.440	0.204	0.015	
16.445	-0.246	0.031	
16.450	0.006	0.021	
16.455	0.356	0.017	
16.460	-0.158	0.038	
16.465	-0.152	0.036	
16.470	0.379	0.025	
16.475	-0.002	0.043	
16.480	-0.243	0.049	
16.485	0.154	0.028	
16.490	0.137	0.022	
16.495	-0.294	0.021	
16.500	-0.077	-0.008	
16.505	0.276	-0.028	
16.510	-0.202	-0.020	
16.515	-0.182	-0.027	
16.520	0.324	-0.037	
16.525	-0.049	-0.015	
16.530	-0.271	-0.004	
16.535	0.140	-0.019	
16.540	0.146	-0.015	
16.545	-0.294	-0.004	
16.550	-0.098	-0.023	
16.555	0.238	-0.039	
16.560	-0.173	-0.031	
16.565	-0.142	-0.032	
16.570	0.482	-0.026	
16.575	0.130	0.026	
16.580	-0.176	0.073	
16.585	0.247	0.083	
16.590	0.183	0.096	
16.595	-0.297	0.100	
16.600	-0.101	0.059	
16.605	0.261	0.017	
16.610	-0.205	0.004	
16.615	-0.193	-0.020	
16.620	0.324	-0.040	
16.625	-0.028	-0.023	
16.630	-0.242	-0.009	
16.635	0.214	-0.014	
16.640	0.223	0.005	
16.645	-0.255	0.032	
16.650	-0.023	0.025	
16.655	0.395	0.021	
16.660	-0.136	0.045	
16.665	-0.118	0.048	
16.670	0.432	0.044	
16.675	0.027	0.069	
16.680	-0.214	0.081	
16.685	0.236	0.065	
16.690	0.258	0.069	
16.695	-0.214	0.083	
16.700	0.032	0.068	
16.705	0.429	0.061	
16.710	-0.127	0.081	
16.715	-0.104	0.080	
16.720	0.481	0.071	
16.725	0.093	0.097	
16.730	-0.173	0.115	
16.735	0.313	0.105	
16.740	0.321	0.117	
16.745	-0.208	0.135	
16.750	0.041	0.117	
16.755	0.421	0.100	
16.760	-0.133	0.108	
16.765	-0.129	0.093	
16.770	0.412	0.069	
16.775	0.026	0.078	
16.780	-0.211	0.080	
16.785	0.266	0.060	
16.790	0.264	0.066	
16.795	-0.232	0.083	
16.800	-0.014	0.066	
16.805	0.383	0.051	
16.810	-0.150	0.062	
16.815	-0.147	0.053	
16.820	0.397	0.037	
16.825	0.053	0.054	
16.830	-0.202	0.067	
16.835	0.284	0.057	
16.840	0.292	0.073	
16.845	-0.207	0.097	
16.850	0.001	0.086	
16.855	0.386	0.073	
16.860	-0.170	0.081	
16.865	-0.181	0.064	
16.870	0.293	0.032	
16.875	-0.064	0.027	
16.880	-0.292	0.013	
16.885	0.082	-0.022	
16.890	0.096	-0.037	
16.895	-0.304	-0.039	
16.900	-0.087	-0.060	
16.905	0.259	-0.070	
16.910	-0.219	-0.052	
16.915	-0.210	-0.051	
16.920	0.229	-0.060	
16.925	-0.072	-0.046	
16.930	-0.278	-0.039	
16.935	0.134	-0.051	
16.940	0.145	-0.042	
16.945	-0.277	-0.022	
16.950	-0.042	-0.030	
16.955	0.389	-0.026	
16.960	-0.112	0.009	
16.965	-0.054	0.030	
16.970	0.554	0.050	
16.975	0.110	0.105	
16.980	-0.205	0.138	
16.985	0.208	0.125	
16.990	0.171	0.113	
16.995	-0.271	0.099	
17.000	-0.051	0.055	
17.005	0.343	0.021	
17.010	-0.159	0.023	
17.015	-0.132	0.015	
17.020	0.414	0.007	
17.025	0.044	0.037	
17.030	-0.208	0.058	
17.035	0.263	0.052	
17.040	0.259	0.067	
17.045	-0.226	0.087	
17.050	0.021	0.073	
17.055	0.452	0.065	
17.060	-0.110	0.087	
17.065	-0.103	0.087	
17.070	0.473	0.079	
17.075	0.090	0.103	
17.080	-0.177	0.118	
17.085	0.308	0.106	
17.090	0.336	0.116	
17.095	-0.185	0.136	
17.100	0.087	0.123	
17.105	0.495	0.117	
17.110	-0.081	0.138	
17.115	-0.083	0.134	
17.120	0.501	0.119	
17.125	0.122	0.138	
17.130	-0.179	0.148	
17.135	0.282	0.128	
17.140	0.272	0.124	
17.145	-0.240	0.127	
17.150	-0.022	0.094	
17.155	0.347	0.063	
17.160	-0.170	0.060	
17.165	-0.156	0.040	
17.170	0.372	0.018	
17.175	-0.008	0.031	
17.180	-0.232	0.037	
17.185	0.209	0.021	
17.190	0.215	0.028	
17.195	-0.243	0.044	
17.200	-0.022	0.031	
17.205	0.379	0.023	
17.210	-0.147	0.042	
17.215	-0.132	0.041	
17.220	0.438	0.035	
17.225	0.065	0.062	
17.230	-0.177	0.083	
17.235	0.324	0.079	
17.240	0.347	0.100	
17.245	-0.214	0.129	
17.250	0.017	0.117	
17.255	0.449	0.101	
17.260	-0.126	0.111	
17.265	-0.130	0.099	
17.270	0.405	0.075	
17.275	0.006	0.082	
17.280	-0.240	0.078	
17.285	0.174	0.048	
17.290	0.198	0.038	
17.295	-0.251	0.041	
17.300	-0.060	0.018	
17.305	0.322	0.001	
17.310	-0.184	0.011	
17.315	-0.161	0.005	
17.320	0.386	-0.005	
17.325	-0.014	0.019	
17.330	-0.255	0.032	
17.335	0.142	0.015	
17.340	0.172	0.013	
17.345	-0.269	0.019	
17.350	0.006	0.003	
17.355	0.501	0.005	
17.360	-0.025	0.051	
17.365	-0.006	0.084	
17.370	0.524	0.108	
17.375	0.035	0.149	
17.380	-0.255	0.157	
17.385	0.139	0.117	
17.390	0.148	0.083	
17.395	-0.268	0.059	
17.400	-0.017	0.018	
17.405	0.380	-0.002	
17.410	-0.145	0.016	
17.415	-0.150	0.019	
17.420	0.391	0.015	
17.425	0.030	0.040	
17.430	-0.220	0.056	
17.435	0.201	0.044	
17.440	0.258	0.050	
17.445	-0.205	0.068	
17.450	0.055	0.059	
17.455	0.460	0.061	
17.460	-0.118	0.090	
17.465	-0.124	0.092	
17.470	0.437	0.080	
17.475	0.078	0.097	
17.480	-0.187	0.106	
17.485	0.310	0.092	
17.490	0.325	0.103	
17.495	-0.184	0.125	
17.500	0.105	0.116	
17.505	0.528	0.116	
17.510	-0.069	0.144	
17.515	-0.072	0.147	
17.520	0.519	0.135	
17.525	0.131	0.155	
17.530	-0.161	0.165	
17.535	0.305	0.144	
17.540	0.311	0.143	
17.545	-0.203	0.149	
17.550	0.010	0.121	
17.555	0.394	0.094	
17.560	-0.162	0.093	
17.565	-0.148	0.072	
17.570	0.403	0.045	
17.575	0.000	0.054	
17.580	-0.234	0.057	
17.585	0.183	0.034	
17.590	0.194	0.032	
17.595	-0.237	0.040	
17.600	-0.026	0.023	
17.605	0.345	0.012	
17.610	-0.168	0.028	
17.615	-0.158	0.024	
17.620	0.369	0.012	
17.625	-0.019	0.030	
17.630	-0.237	0.038	
17.635	0.246	0.023	
17.640	0.246	0.035	
17.645	-0.246	0.057	
17.650	-0.037	0.044	
17.655	0.336	0.030	
17.660	-0.168	0.040	
17.665	-0.155	0.030	
17.670	0.362	0.014	
17.675	-0.054	0.027	
17.680	-0.278	0.028	
17.685	0.116	0.000	
17.690	0.122	-0.010	
17.695	-0.300	-0.010	
17.700	-0.095	-0.035	
17.705	0.240	-0.052	
17.710	-0.228	-0.044	
17.715	-0.207	-0.051	
17.720	0.292	-0.061	
17.725	-0.045	-0.040	
17.730	-0.292	-0.026	
17.735	0.111	-0.038	
17.740	0.188	-0.032	
17.745	-0.219	-0.010	
17.750	0.096	-0.005	
17.755	0.592	0.025	
17.760	-0.054	0.091	
17.765	-0.112	0.124	
17.770	0.342	0.121	
17.775	-0.054	0.121	
17.780	-0.287	0.096	
17.785	0.082	0.041	
17.790	0.122	0.006	
17.795	-0.298	-0.011	
17.800	-0.109	-0.044	
17.805	0.243	-0.065	
17.810	-0.207	-0.055	
17.815	-0.179	-0.056	
17.820	0.333	-0.057	
17.825	0.000	-0.025	
17.830	-0.226	0.001	
17.835	0.258	0.004	
17.840	0.270	0.031	
17.845	-0.216	0.065	
17.850	-0.002	0.063	
17.855	0.412	0.059	
17.860	-0.126	0.078	
17.865	-0.119	0.075	
17.870	0.464	0.064	
17.875	0.087	0.089	
17.880	-0.170	0.106	
17.885	0.351	0.099	
17.890	0.334	0.118	
17.895	-0.190	0.143	
17.900	0.033	0.129	
17.905	0.460	0.114	
17.910	-0.121	0.123	
17.915	-0.129	0.110	
17.920	0.435	0.085	
17.925	0.075	0.095	
17.930	-0.185	0.101	
17.935	0.295	0.085	
17.940	0.285	0.093	
17.945	-0.226	0.110	
17.950	-0.020	0.089	
17.955	0.372	0.067	
17.960	-0.173	0.069	
17.965	-0.167	0.051	
17.970	0.383	0.027	
17.975	-0.006	0.038	
17.980	-0.255	0.041	
17.985	0.177	0.020	
17.990	0.178	0.018	
17.995	-0.249	0.027	
18.000	-0.034	0.010	
18.005	0.354	0.002	
18.010	-0.150	0.021	
18.015	-0.141	0.023	
18.020	0.415	0.019	
18.025	0.052	0.048	
18.030	-0.193	0.068	
18.035	0.276	0.063	
18.040	0.282	0.078	
18.045	-0.229	0.100	
18.050	-0.008	0.083	
18.055	0.389	0.066	
18.060	-0.161	0.074	
18.065	-0.188	0.059	
18.070	0.314	0.030	
18.075	-0.052	0.028	
18.080	-0.263	0.020	
18.085	0.169	-0.007	
18.090	0.151	-0.008	
18.095	-0.277	0.001	
18.100	-0.078	-0.016	
18.105	0.276	-0.029	
18.110	-0.197	-0.017	
18.115	-0.188	-0.022	
18.120	0.301	-0.033	
18.125	-0.048	-0.016	
18.130	-0.262	-0.007	
18.135	0.165	-0.020	
18.140	0.263	-0.007	
18.145	-0.176	0.024	
18.150	0.163	0.038	
18.155	0.603	0.073	
18.160	-0.074	0.136	
18.165	-0.135	0.157	
18.170	0.356	0.139	
18.175	-0.042	0.129	
18.180	-0.272	0.100	
18.185	0.119	0.046	
18.190	0.163	0.017	
18.195	-0.260	0.008	
18.200	-0.054	-0.017	
18.205	0.330	-0.028	
18.210	-0.167	-0.008	
18.215	-0.161	-0.004	
18.220	0.336	-0.008	
18.225	-0.016	0.014	
18.230	-0.232	0.025	
18.235	0.209	0.014	
18.240	0.266	0.027	
18.245	-0.214	0.052	
18.250	0.023	0.049	
18.255	0.427	0.050	
18.260	-0.118	0.076	
18.265	-0.115	0.079	
18.270	0.449	0.070	
18.275	0.076	0.093	
18.280	-0.191	0.105	
18.285	0.301	0.092	
18.290	0.307	0.102	
18.295	-0.197	0.121	
18.300	0.052	0.106	
18.305	0.449	0.096	
18.310	-0.116	0.111	
18.315	-0.107	0.104	
18.320	0.450	0.086	
18.325	0.088	0.102	
18.330	-0.182	0.112	
18.335	0.236	0.094	
18.340	0.267	0.094	
18.345	-0.199	0.103	
18.350	0.003	0.082	
18.355	0.409	0.067	
18.360	-0.126	0.079	
18.365	-0.127	0.072	
18.370	0.389	0.056	
18.375	0.013	0.068	
18.380	-0.231	0.070	
18.385	0.208	0.047	
18.390	0.252	0.047	
18.395	-0.219	0.061	
18.400	0.018	0.049	
18.405	0.406	0.044	
18.410	-0.145	0.065	
18.415	-0.132	0.063	
18.420	0.432	0.051	
18.425	0.036	0.071	
18.430	-0.196	0.082	
18.435	0.275	0.069	
18.440	0.295	0.079	
18.445	-0.225	0.099	
18.450	-0.003	0.084	
18.455	0.392	0.068	
18.460	-0.148	0.077	
18.465	-0.162	0.064	
18.470	0.328	0.039	
18.475	-0.032	0.041	
18.480	-0.266	0.034	
18.485	0.114	0.004	
18.490	0.124	-0.008	
18.495	-0.275	-0.008	
18.500	-0.072	-0.030	
18.505	0.316	-0.040	
18.510	-0.193	-0.020	
18.515	-0.182	-0.019	
18.520	0.313	-0.026	
18.525	-0.046	-0.006	
18.530	-0.260	0.003	
18.535	0.218	-0.009	
18.540	0.371	0.012	
18.545	-0.086	0.060	
18.550	0.266	0.094	
18.555	0.626	0.143	
18.560	-0.084	0.207	
18.565	-0.153	0.214	
18.570	0.296	0.174	
18.575	-0.058	0.139	
18.580	-0.277	0.092	
18.585	0.119	0.029	
18.590	0.159	-0.001	
18.595	-0.283	-0.009	
18.600	-0.084	-0.034	
18.605	0.287	-0.048	
18.610	-0.182	-0.031	
18.615	-0.170	-0.029	
18.620	0.348	-0.030	
18.625	-0.016	-0.002	
18.630	-0.249	0.016	
18.635	0.191	0.006	
18.640	0.232	0.017	
18.645	-0.226	0.039	
18.650	-0.006	0.032	
18.655	0.380	0.030	
18.660	-0.139	0.051	
18.665	-0.130	0.051	
18.670	0.423	0.042	
18.675	0.073	0.067	
18.680	-0.197	0.084	
18.685	0.279	0.075	
18.690	0.307	0.087	
18.695	-0.197	0.109	
18.700	0.021	0.097	
18.705	0.455	0.087	
18.710	-0.101	0.104	
18.715	-0.113	0.100	
18.720	0.449	0.085	
18.725	0.036	0.100	
18.730	-0.217	0.103	
18.735	0.227	0.077	
18.740	0.235	0.072	
18.745	-0.228	0.078	
18.750	-0.016	0.056	
18.755	0.386	0.040	
18.760	-0.139	0.054	
18.765	-0.145	0.049	
18.770	0.380	0.035	
18.775	0.023	0.051	
18.780	-0.231	0.059	
18.785	0.214	0.041	
18.790	0.264	0.046	
18.795	-0.205	0.065	
18.800	0.042	0.057	
18.805	0.429	0.057	
18.810	-0.130	0.082	
18.815	-0.127	0.081	
18.820	0.412	0.067	
18.825	0.049	0.082	
18.830	-0.203	0.088	
18.835	0.244	0.070	
18.840	0.238	0.072	
18.845	-0.252	0.081	
18.850	-0.061	0.056	
18.855	0.299	0.029	
18.860	-0.190	0.027	
18.865	-0.207	0.008	
18.870	0.272	-0.019	
18.875	-0.049	-0.015	
18.880	-0.280	-0.015	
18.885	0.111	-0.035	
18.890	0.149	-0.035	
18.895	-0.272	-0.022	
18.900	-0.074	-0.033	
18.905	0.281	-0.039	
18.910	-0.200	-0.021	
18.915	-0.228	-0.025	
18.920	0.233	-0.041	
18.925	-0.057	-0.034	
18.930	-0.249	-0.029	
18.935	0.259	-0.036	
18.940	0.394	-0.002	
18.945	-0.152	0.057	
18.950	0.026	0.080	
18.955	0.377	0.090	
18.960	-0.185	0.106	
18.965	-0.213	0.084	
18.970	0.208	0.040	
18.975	-0.074	0.016	
18.980	-0.294	-0.009	
18.985	0.087	-0.046	
18.990	0.134	-0.055	
18.995	-0.297	-0.047	
19.000	-0.090	-0.059	
19.005	0.287	-0.063	
19.010	-0.187	-0.040	
19.015	-0.182	-0.033	
19.020	0.343	-0.034	
19.025	-0.006	-0.005	
19.030	-0.245	0.015	
19.035	0.168	0.006	
19.040	0.217	0.015	
19.045	-0.249	0.033	
19.050	-0.055	0.020	
19.055	0.334	0.009	
19.060	-0.168	0.022	
19.065	-0.176	0.016	
19.070	0.350	0.003	
19.075	0.015	0.020	
19.080	-0.236	0.032	
19.085	0.154	0.018	
19.090	0.166	0.019	
19.095	-0.260	0.026	
19.100	-0.058	0.006	
19.105	0.316	-0.008	
19.110	-0.181	0.005	
19.115	-0.181	-0.000	
19.120	0.321	-0.013	
19.125	-0.020	0.004	
19.130	-0.245	0.013	
19.135	0.211	0.001	
19.140	0.218	0.013	
19.145	-0.265	0.035	
19.150	-0.068	0.021	
19.155	0.302	0.006	
19.160	-0.200	0.013	
19.165	-0.202	0.000	
19.170	0.304	-0.020	
19.175	-0.042	-0.009	
19.180	-0.269	-0.005	
19.185	0.146	-0.022	
19.190	0.197	-0.016	
19.195	-0.265	0.003	
19.200	-0.060	-0.007	
19.205	0.327	-0.013	
19.210	-0.188	0.005	
19.215	-0.196	0.002	
19.220	0.308	-0.013	
19.225	-0.034	0.000	
19.230	-0.274	0.005	
19.235	0.107	-0.015	
19.240	0.134	-0.019	
19.245	-0.304	-0.014	
19.250	-0.121	-0.037	
19.255	0.192	-0.057	
19.260	-0.245	-0.056	
19.265	-0.254	-0.070	
19.270	0.191	-0.090	
19.275	-0.098	-0.082	
19.280	-0.313	-0.078	
19.285	0.055	-0.092	
19.290	0.082	-0.088	
19.295	-0.318	-0.074	
19.300	-0.129	-0.085	
19.305	0.192	-0.093	
19.310	-0.242	-0.078	
19.315	-0.236	-0.081	
19.320	0.299	-0.087	
19.325	0.013	-0.056	
19.330	-0.181	-0.024	
19.335	0.284	-0.007	
19.340	0.217	0.031	
19.345	-0.280	0.064	
19.350	-0.130	0.046	
19.355	0.151	0.011	
19.360	-0.281	-0.013	
19.365	-0.274	-0.054	
19.370	0.185	-0.094	
19.375	-0.106	-0.097	
19.380	-0.312	-0.096	
19.385	0.056	-0.109	
19.390	0.078	-0.101	
19.395	-0.295	-0.082	
19.400	-0.086	-0.085	
19.405	0.275	-0.080	
19.410	-0.197	-0.050	
19.415	-0.200	-0.041	
19.420	0.285	-0.044	
19.425	-0.026	-0.021	
19.430	-0.240	-0.006	
19.435	0.181	-0.013	
19.440	0.189	0.001	
19.445	-0.275	0.020	
19.450	-0.055	0.007	
19.455	0.339	-0.003	
19.460	-0.167	0.014	
19.465	-0.167	0.012	
19.470	0.379	0.003	
19.475	0.027	0.027	
19.480	-0.216	0.044	
19.485	0.241	0.036	
19.490	0.240	0.049	
19.495	-0.232	0.069	
19.500	-0.023	0.055	
19.505	0.354	0.041	
19.510	-0.152	0.051	
19.515	-0.152	0.042	
19.520	0.369	0.026	
19.525	-0.020	0.039	
19.530	-0.269	0.042	
19.535	0.120	0.015	
19.540	0.157	0.005	
19.545	-0.275	0.006	
19.550	-0.084	-0.016	
19.555	0.281	-0.032	
19.560	-0.199	-0.021	
19.565	-0.196	-0.026	
19.570	0.328	-0.036	
19.575	0.006	-0.013	
19.580	-0.236	0.006	
19.585	0.203	0.002	
19.590	0.195	0.016	
19.595	-0.245	0.037	
19.600	-0.008	0.026	
19.605	0.376	0.021	
19.610	-0.155	0.042	
19.615	-0.158	0.040	
19.620	0.371	0.028	
19.625	-0.002	0.043	
19.630	-0.243	0.048	
19.635	0.186	0.028	
19.640	0.174	0.027	
19.645	-0.283	0.033	
19.650	-0.095	0.007	
19.655	0.261	-0.016	
19.660	-0.216	-0.015	
19.665	-0.207	-0.029	
19.670	0.282	-0.047	
19.675	-0.061	-0.033	
19.680	-0.286	-0.026	
19.685	0.104	-0.042	
19.690	0.163	-0.038	
19.695	-0.295	-0.023	
19.700	-0.095	-0.036	
19.705	0.302	-0.044	
19.710	-0.170	-0.024	
19.715	-0.142	-0.018	
19.720	0.505	-0.009	
19.725	0.189	0.045	
19.730	-0.164	0.097	
19.735	0.235	0.109	
19.740	0.156	0.116	
19.745	-0.303	0.109	
19.750	-0.112	0.060	
19.755	0.281	0.013	
19.760	-0.202	-0.001	
19.765	-0.200	-0.022	
19.770	0.336	-0.041	
19.775	-0.019	-0.022	
19.780	-0.243	-0.006	
19.785	0.208	-0.011	
19.790	0.236	0.008	
19.795	-0.240	0.036	
19.800	-0.017	0.031	
19.805	0.412	0.029	
19.810	-0.138	0.054	
19.815	-0.132	0.056	
19.820	0.452	0.049	
19.825	0.073	0.076	
19.830	-0.200	0.093	
19.835	0.275	0.082	
19.840	0.301	0.092	
19.845	-0.207	0.110	
19.850	0.042	0.096	
19.855	0.473	0.087	
19.860	-0.104	0.108	
19.865	-0.089	0.106	
19.870	0.482	0.095	
19.875	0.113	0.118	
19.880	-0.174	0.132	
19.885	0.305	0.117	
19.890	0.307	0.123	
19.895	-0.197	0.136	
19.900	0.039	0.116	
19.905	0.437	0.099	
19.910	-0.129	0.108	
19.915	-0.129	0.095	
19.920	0.414	0.073	
19.925	0.039	0.082	
19.930	-0.225	0.084	
19.935	0.236	0.061	
19.940	0.244	0.062	
19.945	-0.239	0.073	
19.950	-0.017	0.053	
19.955	0.374	0.039	
19.960	-0.141	0.051	
19.965	-0.133	0.046	
19.970	0.420	0.036	
19.975	0.038	0.058	
19.980	-0.203	0.072	
19.985	0.292	0.062	
19.990	0.307	0.077	
19.995	-0.208	0.103	
20.000	0.026	0.092	
20.005	0.426	0.083	
20.010	-0.132	0.097	
20.015	-0.135	0.087	
20.020	0.385	0.066	
20.025	0.010	0.073	
20.030	-0.240	0.070	
20.035	0.163	0.042	
20.040	0.186	0.033	
20.045	-0.269	0.035	
20.050	-0.084	0.009	
20.055	0.284	-0.012	
20.060	-0.185	-0.007	
20.065	-0.187	-0.015	
20.070	0.301	-0.029	
20.075	-0.023	-0.012	
20.080	-0.260	-0.002	
20.085	0.131	-0.015	
20.090	0.166	-0.011	
20.095	-0.246	0.003	
20.100	0.026	-0.005	
20.105	0.531	0.008	
20.110	0.003	0.063	
20.115	0.007	0.104	
20.120	0.551	0.131	
20.125	0.056	0.174	
20.130	-0.242	0.182	
20.135	0.140	0.140	
20.140	0.149	0.102	
20.145	-0.266	0.072	
20.150	-0.051	0.024	
20.155	0.340	-0.005	
20.160	-0.167	0.003	
20.165	-0.147	-0.000	
20.170	0.408	-0.004	
20.175	0.041	0.027	
20.180	-0.203	0.051	
20.185	0.206	0.046	
20.190	0.259	0.056	
20.195	-0.211	0.075	
20.200	0.041	0.065	
20.205	0.464	0.063	
20.210	-0.109	0.090	
20.215	-0.101	0.094	
20.220	0.466	0.085	
20.225	0.087	0.108	
20.230	-0.176	0.120	
20.235	0.342	0.108	
20.240	0.356	0.122	
20.245	-0.177	0.146	
20.250	0.068	0.135	
20.255	0.478	0.124	
20.260	-0.092	0.139	
20.265	-0.081	0.131	
20.270	0.519	0.115	
20.275	0.111	0.135	
20.280	-0.184	0.146	
20.285	0.281	0.125	
20.290	0.318	0.124	
20.295	-0.185	0.134	
20.300	0.050	0.115	
20.305	0.446	0.100	
20.310	-0.119	0.113	
20.315	-0.115	0.102	
20.320	0.449	0.083	
20.325	0.078	0.098	
20.330	-0.187	0.106	
20.335	0.266	0.089	
20.340	0.261	0.093	
20.345	-0.213	0.104	
20.350	0.010	0.083	
20.355	0.440	0.069	
20.360	-0.110	0.085	
20.365	-0.109	0.083	
20.370	0.466	0.072	
20.375	0.090	0.096	
20.380	-0.171	0.112	
20.385	0.318	0.102	
20.390	0.336	0.115	
20.395	-0.184	0.138	
20.400	0.047	0.124	
20.405	0.409	0.109	
20.410	-0.153	0.115	
20.415	-0.165	0.093	
20.420	0.389	0.061	
20.425	0.021	0.063	
20.430	-0.243	0.061	
20.435	0.159	0.035	
20.440	0.188	0.028	
20.445	-0.249	0.032	
20.450	-0.028	0.013	
20.455	0.369	0.004	
20.460	-0.158	0.024	
20.465	-0.156	0.025	
20.470	0.377	0.017	
20.475	0.017	0.038	
20.480	-0.234	0.049	
20.485	0.189	0.034	
20.490	0.240	0.038	
20.495	-0.188	0.055	
20.500	0.168	0.054	
20.505	0.731	0.085	
20.510	0.084	0.163	
20.515	-0.020	0.212	
20.520	0.470	0.221	
20.525	0.024	0.228	
20.530	-0.252	0.202	
20.535	0.130	0.135	
20.540	0.174	0.086	
20.545	-0.257	0.056	
20.550	-0.043	0.013	
20.555	0.357	-0.009	
20.560	-0.158	0.005	
20.565	-0.164	0.005	
20.570	0.374	-0.001	
20.575	0.041	0.025	
20.580	-0.229	0.044	
20.585	0.203	0.035	
20.590	0.236	0.043	
20.595	-0.223	0.060	
20.600	-0.003	0.048	
20.605	0.437	0.042	
20.610	-0.127	0.066	
20.615	-0.132	0.068	
20.620	0.452	0.059	
20.625	0.107	0.084	
20.630	-0.174	0.104	
20.635	0.301	0.097	
20.640	0.327	0.111	
20.645	-0.193	0.132	
20.650	0.056	0.118	
20.655	0.495	0.108	
20.660	-0.081	0.128	
20.665	-0.103	0.125	
20.670	0.496	0.110	
20.675	0.127	0.129	
20.680	-0.173	0.141	
20.685	0.310	0.125	
20.690	0.314	0.130	
20.695	-0.219	0.141	
20.700	-0.028	0.114	
20.705	0.360	0.083	
20.710	-0.147	0.078	
20.715	-0.148	0.057	
20.720	0.400	0.034	
20.725	0.041	0.049	
20.730	-0.211	0.059	
20.735	0.244	0.047	
20.740	0.263	0.058	
20.745	-0.208	0.078	
20.750	0.007	0.067	
20.755	0.423	0.060	
20.760	-0.118	0.079	
20.765	-0.135	0.076	
20.770	0.426	0.063	
20.775	0.041	0.079	
20.780	-0.220	0.086	
20.785	0.246	0.067	
20.790	0.267	0.069	
20.795	-0.229	0.083	
20.800	-0.013	0.066	
20.805	0.343	0.049	
20.810	-0.164	0.055	
20.815	-0.181	0.040	
20.820	0.314	0.016	
20.825	-0.023	0.021	
20.830	-0.269	0.019	
20.835	0.107	-0.006	
20.840	0.149	-0.013	
20.845	-0.278	-0.008	
20.850	-0.080	-0.027	
20.855	0.293	-0.038	
20.860	-0.176	-0.021	
20.865	-0.202	-0.021	
20.870	0.252	-0.032	
20.875	-0.071	-0.021	
20.880	-0.295	-0.020	
20.885	0.111	-0.041	
20.890	0.230	-0.037	
20.895	-0.188	-0.010	
20.900	0.143	0.005	
20.905	0.615	0.044	
20.910	-0.048	0.117	
20.915	-0.122	0.149	
20.920	0.342	0.140	
20.925	-0.037	0.134	
20.930	-0.284	0.105	
20.935	0.093	0.048	
20.940	0.159	0.014	
20.945	-0.274	0.001	
20.950	-0.081	-0.027	
20.955	0.302	-0.042	
20.960	-0.167	-0.026	
20.965	-0.179	-0.022	
20.970	0.339	-0.025	
20.975	0.000	0.001	
20.980	-0.246	0.018	
20.985	0.177	0.009	
20.990	0.221	0.017	
20.995	-0.246	0.036	
21.000	-0.045	0.024	
21.005	0.369	0.015	
21.010	-0.130	0.034	
21.015	-0.162	0.034	
21.020	0.347	0.023	
21.025	0.018	0.039	
21.030	-0.219	0.047	
21.035	0.226	0.033	
21.040	0.273	0.044	
21.045	-0.214	0.067	
21.050	-0.005	0.058	
21.055	0.408	0.052	
21.060	-0.127	0.071	
21.065	-0.145	0.067	
21.070	0.398	0.052	
21.075	0.026	0.066	
21.080	-0.228	0.071	
21.085	0.217	0.051	
21.090	0.264	0.053	
21.095	-0.228	0.068	
21.100	-0.040	0.052	
21.105	0.382	0.038	
21.110	-0.148	0.051	
21.115	-0.150	0.045	
21.120	0.377	0.030	
21.125	0.042	0.047	
21.130	-0.225	0.058	
21.135	0.191	0.042	
21.140	0.224	0.045	
21.145	-0.258	0.055	
21.150	-0.045	0.034	
21.155	0.374	0.019	
21.160	-0.144	0.034	
21.165	-0.161	0.032	
21.170	0.359	0.020	
21.175	0.023	0.037	
21.180	-0.232	0.046	
21.185	0.204	0.032	
21.190	0.252	0.038	
21.195	-0.232	0.056	
21.200	-0.054	0.043	
21.205	0.298	0.026	
21.210	-0.173	0.030	
21.215	-0.199	0.015	
21.220	0.290	-0.008	
21.225	-0.048	-0.002	
21.230	-0.278	-0.003	
21.235	0.082	-0.027	
21.240	0.137	-0.033	
21.245	-0.284	-0.026	
21.250	-0.109	-0.043	
21.255	0.246	-0.055	
21.260	-0.210	-0.043	
21.265	-0.214	-0.047	
21.270	0.246	-0.058	
21.275	-0.072	-0.044	
21.280	-0.295	-0.037	
21.285	0.130	-0.052	
21.290	0.233	-0.040	
21.295	-0.179	-0.008	
21.300	0.030	0.005	
21.305	0.415	0.024	
21.310	-0.159	0.062	
21.315	-0.210	0.063	
21.320	0.244	0.037	
21.325	-0.069	0.027	
21.330	-0.306	0.008	
21.335	0.067	-0.031	
21.340	0.140	-0.046	
21.345	-0.275	-0.042	
21.350	-0.087	-0.055	
21.355	0.322	-0.057	
21.360	-0.168	-0.030	
21.365	-0.197	-0.020	
21.370	0.321	-0.023	
21.375	-0.002	-0.000	
21.380	-0.242	0.015	
21.385	0.186	0.006	
21.390	0.247	0.018	
21.395	-0.234	0.041	
21.400	-0.043	0.032	
21.405	0.350	0.024	
21.410	-0.152	0.038	
21.415	-0.174	0.033	
21.420	0.368	0.018	
21.425	0.059	0.036	
21.430	-0.225	0.050	
21.435	0.201	0.039	
21.440	0.243	0.046	
21.445	-0.242	0.061	
21.450	-0.031	0.045	
21.455	0.398	0.033	
21.460	-0.129	0.051	
21.465	-0.138	0.050	
21.470	0.395	0.040	
21.475	0.029	0.059	
21.480	-0.222	0.068	
21.485	0.201	0.050	
21.490	0.246	0.052	
21.495	-0.223	0.065	
21.500	-0.046	0.048	
21.505	0.351	0.032	
21.510	-0.162	0.041	
21.515	-0.187	0.031	
21.520	0.336	0.011	
21.525	0.017	0.022	
21.530	-0.252	0.029	
21.535	0.160	0.012	
21.540	0.203	0.014	
21.545	-0.272	0.026	
21.550	-0.077	0.008	
21.555	0.321	-0.008	
21.560	-0.170	0.005	
21.565	-0.174	0.001	
21.570	0.374	-0.008	
21.575	0.058	0.018	
21.580	-0.214	0.041	
21.585	0.226	0.037	
21.590	0.263	0.052	
21.595	-0.262	0.072	
21.600	-0.066	0.054	
21.605	0.311	0.031	
21.610	-0.187	0.031	
21.615	-0.213	0.013	
21.620	0.273	-0.014	
21.625	-0.029	-0.011	
21.630	-0.266	-0.010	
21.635	0.104	-0.028	
21.640	0.152	-0.028	
21.645	-0.286	-0.017	
21.650	-0.092	-0.032	
21.655	0.282	-0.042	
21.660	-0.210	-0.027	
21.665	-0.254	-0.033	
21.670	0.178	-0.054	
21.675	-0.095	-0.055	
21.680	-0.303	-0.059	
21.685	0.090	-0.079	
21.690	0.224	-0.069	
21.695	-0.202	-0.036	
21.700	-0.034	-0.023	
21.705	0.324	-0.010	
21.710	-0.207	0.017	
21.715	-0.252	0.012	
21.720	0.175	-0.018	
21.725	-0.101	-0.029	
21.730	-0.324	-0.046	
21.735	0.044	-0.078	
21.740	0.137	-0.084	
21.745	-0.280	-0.070	
21.750	-0.090	-0.073	
21.755	0.322	-0.068	
21.760	-0.176	-0.035	
21.765	-0.197	-0.023	
21.770	0.310	-0.025	
21.775	0.021	-0.001	
21.780	-0.248	0.016	
21.785	0.160	0.007	
21.790	0.244	0.016	
21.795	-0.226	0.037	
21.800	-0.051	0.028	
21.805	0.406	0.022	
21.810	-0.122	0.045	
21.815	-0.142	0.049	
21.820	0.408	0.041	
21.825	0.072	0.065	
21.830	-0.214	0.080	
21.835	0.229	0.066	
21.840	0.322	0.074	
21.845	-0.193	0.095	
21.850	0.017	0.086	
21.855	0.460	0.079	
21.860	-0.083	0.101	
21.865	-0.112	0.101	
21.870	0.457	0.090	
21.875	0.139	0.111	
21.880	-0.185	0.126	
21.885	0.255	0.111	
21.890	0.296	0.112	
21.895	-0.214	0.121	
21.900	-0.019	0.096	
21.905	0.406	0.073	
21.910	-0.121	0.080	
21.915	-0.139	0.069	
21.920	0.421	0.052	
21.925	0.097	0.071	
21.930	-0.213	0.086	
21.935	0.217	0.072	
21.940	0.287	0.076	
21.945	-0.208	0.090	
21.950	-0.016	0.074	
21.955	0.453	0.062	
21.960	-0.100	0.082	
21.965	-0.126	0.082	
21.970	0.449	0.072	
21.975	0.116	0.094	
21.980	-0.188	0.111	
21.985	0.261	0.098	
21.990	0.319	0.104	
21.995	-0.213	0.120	
22.000	-0.023	0.099	
22.005	0.429	0.079	
22.010	-0.132	0.086	
22.015	-0.181	0.074	
22.020	0.328	0.046	
22.025	0.001	0.046	
22.030	-0.255	0.041	
22.035	0.140	0.014	
22.040	0.226	0.010	
22.045	-0.257	0.021	
22.050	-0.068	0.007	
22.055	0.337	-0.004	
22.060	-0.150	0.012	
22.065	-0.171	0.012	
22.070	0.339	0.002	
22.075	0.038	0.022	
22.080	-0.228	0.037	
22.085	0.217	0.028	
22.090	0.389	0.046	
22.095	-0.109	0.087	
22.100	0.120	0.105	
22.105	0.498	0.123	
22.110	-0.127	0.155	
22.115	-0.203	0.144	
22.120	0.278	0.100	
22.125	-0.011	0.076	
22.130	-0.258	0.050	
22.135	0.139	0.010	
22.140	0.223	-0.000	
22.145	-0.252	0.010	
22.150	-0.069	-0.003	
22.155	0.377	-0.010	
22.160	-0.133	0.015	
22.165	-0.145	0.022	
22.170	0.366	0.019	
22.175	0.061	0.044	
22.180	-0.211	0.061	
22.185	0.235	0.052	
22.190	0.325	0.065	
22.195	-0.205	0.091	
22.200	0.000	0.083	
22.205	0.417	0.073	
22.210	-0.086	0.090	
22.215	-0.119	0.087	
22.220	0.473	0.076	
22.225	0.174	0.103	
22.230	-0.168	0.128	
22.235	0.324	0.123	
22.240	0.382	0.138	
22.245	-0.171	0.162	
22.250	0.046	0.148	
22.255	0.508	0.134	
22.260	-0.055	0.148	
22.265	-0.092	0.142	
22.270	0.457	0.123	
22.275	0.122	0.134	
22.280	-0.190	0.139	
22.285	0.263	0.116	
22.290	0.345	0.114	
22.295	-0.202	0.127	
22.300	-0.022	0.106	
22.305	0.426	0.085	
22.310	-0.101	0.092	
22.315	-0.129	0.083	
22.320	0.402	0.065	
22.325	0.059	0.078	
22.330	-0.214	0.084	
22.335	0.220	0.065	
22.340	0.340	0.069	
22.345	-0.196	0.091	
22.350	0.007	0.083	
22.355	0.475	0.077	
22.360	-0.084	0.101	
22.365	-0.109	0.102	
22.370	0.449	0.091	
22.375	0.125	0.111	
22.380	-0.187	0.124	
22.385	0.244	0.107	
22.390	0.318	0.108	
22.395	-0.225	0.118	
22.400	-0.037	0.094	
22.405	0.389	0.069	
22.410	-0.141	0.071	
22.415	-0.188	0.056	
22.420	0.301	0.028	
22.425	-0.020	0.027	
22.430	-0.280	0.021	
22.435	0.088	-0.009	
22.440	0.177	-0.018	
22.445	-0.260	-0.011	
22.450	-0.089	-0.026	
22.455	0.313	-0.034	
22.460	-0.173	-0.015	
22.465	-0.205	-0.014	
22.470	0.244	-0.026	
22.475	-0.023	-0.016	
22.480	-0.243	-0.010	
22.485	0.256	-0.017	
22.490	0.466	0.017	
22.495	-0.074	0.082	
22.500	0.162	0.121	
22.505	0.539	0.154	
22.510	-0.109	0.194	
22.515	-0.176	0.185	
22.520	0.302	0.139	
22.525	0.017	0.111	
22.530	-0.246	0.081	
22.535	0.137	0.036	
22.540	0.241	0.019	
22.545	-0.234	0.025	
22.550	-0.063	0.010	
22.555	0.379	0.002	
22.560	-0.139	0.023	
22.565	-0.184	0.025	
22.570	0.342	0.014	
22.575	0.073	0.033	
22.580	-0.217	0.048	
22.585	0.235	0.041	
22.590	0.337	0.057	
22.595	-0.200	0.087	
22.600	-0.008	0.083	
22.605	0.461	0.076	
22.610	-0.084	0.098	
22.615	-0.115	0.098	
22.620	0.449	0.087	
22.625	0.113	0.106	
22.630	-0.188	0.119	
22.635	0.247	0.102	
22.640	0.347	0.105	
22.645	-0.168	0.123	
22.650	0.018	0.110	
22.655	0.479	0.100	
22.660	-0.048	0.119	
22.665	-0.089	0.120	
22.670	0.504	0.111	
22.675	0.186	0.137	
22.680	-0.173	0.157	
22.685	0.253	0.142	
22.690	0.318	0.139	
22.695	-0.214	0.143	
22.700	-0.043	0.111	
22.705	0.411	0.080	
22.710	-0.118	0.081	
22.715	-0.171	0.066	
22.720	0.363	0.042	
22.725	0.036	0.050	
22.730	-0.239	0.054	
22.735	0.151	0.032	
22.740	0.256	0.031	
22.745	-0.219	0.045	
22.750	-0.042	0.033	
22.755	0.408	0.026	
22.760	-0.107	0.049	
22.765	-0.161	0.052	
22.770	0.388	0.042	
22.775	0.117	0.064	
22.780	-0.200	0.082	
22.785	0.221	0.073	
22.790	0.318	0.081	
22.795	-0.220	0.099	
22.800	-0.060	0.081	
22.805	0.369	0.059	
22.810	-0.142	0.062	
22.815	-0.210	0.046	
22.820	0.249	0.015	
22.825	-0.031	0.009	
22.830	-0.289	-0.000	
22.835	0.046	-0.031	
22.840	0.131	-0.043	
22.845	-0.303	-0.041	
22.850	-0.121	-0.060	
22.855	0.269	-0.071	
22.860	-0.173	-0.052	
22.865	-0.208	-0.046	
22.870	0.276	-0.049	
22.875	-0.013	-0.026	
22.880	-0.277	-0.011	
22.885	0.088	-0.024	
22.890	0.267	-0.018	
22.895	-0.168	0.009	
22.900	0.149	0.025	
22.905	0.681	0.065	
22.910	0.023	0.144	
22.915	-0.115	0.184	
22.920	0.339	0.176	
22.925	0.009	0.166	
22.930	-0.252	0.135	
22.935	0.131	0.078	
22.940	0.194	0.045	
22.945	-0.265	0.032	
22.950	-0.122	-0.001	
22.955	0.296	-0.027	
22.960	-0.170	-0.021	
22.965	-0.225	-0.027	
22.970	0.269	-0.041	
22.975	0.007	-0.025	
22.980	-0.258	-0.012	
22.985	0.130	-0.021	
22.990	0.256	-0.009	
22.995	-0.228	0.017	
23.000	-0.063	0.015	
23.005	0.376	0.012	
23.010	-0.132	0.034	
23.015	-0.176	0.036	
23.020	0.343	0.023	
23.025	0.068	0.040	
23.030	-0.240	0.052	
23.035	0.151	0.036	
23.040	0.279	0.037	
23.045	-0.213	0.054	
23.050	-0.028	0.044	
23.055	0.421	0.038	
23.060	-0.107	0.061	
23.065	-0.156	0.063	
23.070	0.397	0.052	
23.075	0.114	0.071	
23.080	-0.226	0.086	
23.085	0.156	0.069	
23.090	0.247	0.063	
23.095	-0.237	0.068	
23.100	-0.068	0.044	
23.105	0.360	0.024	
23.110	-0.139	0.033	
23.115	-0.200	0.026	
23.120	0.295	0.006	
23.125	0.017	0.014	
23.130	-0.274	0.018	
23.135	0.076	-0.004	
23.140	0.223	-0.010	
23.145	-0.272	0.001	
23.150	-0.112	-0.014	
23.155	0.307	-0.028	
23.160	-0.148	-0.013	
23.165	-0.217	-0.013	
23.170	0.299	-0.023	
23.175	0.041	-0.005	
23.180	-0.248	0.011	
23.185	0.156	0.003	
23.190	0.282	0.015	
23.195	-0.234	0.040	
23.200	-0.089	0.032	
23.205	0.327	0.019	
23.210	-0.150	0.028	
23.215	-0.207	0.019	
23.220	0.256	-0.003	
23.225	-0.029	-0.001	
23.230	-0.294	-0.004	
23.235	0.041	-0.031	
23.240	0.145	-0.042	
23.245	-0.275	-0.037	
23.250	-0.135	-0.053	
23.255	0.221	-0.066	
23.260	-0.205	-0.055	
23.265	-0.240	-0.060	
23.270	0.235	-0.072	
23.275	-0.040	-0.055	
23.280	-0.307	-0.044	
23.285	-0.011	-0.061	
23.290	0.099	-0.069	
23.295	-0.289	-0.065	
23.300	-0.110	-0.078	
23.305	0.392	-0.075	
23.310	-0.040	-0.031	
23.315	-0.061	0.008	
23.320	0.492	0.041	
23.325	0.104	0.097	
23.330	-0.262	0.127	
23.335	0.041	0.101	
23.340	0.128	0.067	
23.345	-0.284	0.038	
23.350	-0.141	-0.009	
23.355	0.258	-0.046	
23.360	-0.177	-0.046	
23.365	-0.240	-0.053	
23.370	0.238	-0.066	
23.375	0.020	-0.049	
23.380	-0.265	-0.030	
23.385	0.062	-0.036	
23.390	0.194	-0.030	
23.395	-0.254	-0.013	
23.400	-0.089	-0.020	
23.405	0.347	-0.024	
23.410	-0.136	0.000	
23.415	-0.193	0.006	
23.420	0.330	-0.001	
23.425	0.061	0.020	
23.430	-0.246	0.037	
23.435	0.131	0.024	
23.440	0.278	0.027	
23.445	-0.199	0.046	
23.450	-0.035	0.039	
23.455	0.437	0.037	
23.460	-0.090	0.063	
23.465	-0.162	0.069	
23.470	0.374	0.057	
23.475	0.111	0.073	
23.480	-0.216	0.085	
23.485	0.097	0.065	
23.490	0.247	0.053	
23.495	-0.229	0.055	
23.500	-0.074	0.032	
23.505	0.383	0.015	
23.510	-0.116	0.031	
23.515	-0.190	0.031	
23.520	0.275	0.015	
23.525	0.006	0.021	
23.530	-0.277	0.021	
23.535	0.056	-0.006	
23.540	0.189	-0.017	
23.545	-0.258	-0.011	
23.550	-0.107	-0.026	
23.555	0.290	-0.037	
23.560	-0.156	-0.021	
23.565	-0.214	-0.020	
23.570	0.279	-0.030	
23.575	0.044	-0.012	
23.580	-0.257	0.005	
23.585	0.099	-0.005	
23.590	0.295	0.002	
23.595	-0.216	0.027	
23.600	-0.068	0.025	
23.605	0.380	0.020	
23.610	-0.121	0.041	
23.615	-0.185	0.041	
23.620	0.321	0.026	
23.625	0.049	0.037	
23.630	-0.266	0.043	
23.635	0.050	0.017	
23.640	0.183	0.003	
23.645	-0.262	0.002	
23.650	-0.132	-0.020	
23.655	0.269	-0.040	
23.660	-0.173	-0.031	
23.665	-0.220	-0.035	
23.670	0.285	-0.045	
23.675	0.035	-0.024	
23.680	-0.271	-0.006	
23.685	0.065	-0.016	
23.690	0.224	-0.014	
23.695	-0.252	0.002	
23.700	-0.122	-0.010	
23.705	0.330	-0.021	
23.710	-0.116	-0.003	
23.715	-0.153	0.003	
23.720	0.447	0.007	
23.725	0.273	0.055	
23.730	-0.156	0.106	
23.735	0.198	0.120	
23.740	0.243	0.126	
23.745	-0.263	0.126	
23.750	-0.132	0.083	
23.755	0.284	0.036	
23.760	-0.152	0.019	
23.765	-0.205	-0.003	
23.770	0.302	-0.026	
23.775	0.058	-0.011	
23.780	-0.249	0.006	
23.785	0.111	-0.002	
23.790	0.278	0.006	
23.795	-0.213	0.030	
23.800	-0.072	0.026	
23.805	0.395	0.021	
23.810	-0.103	0.043	
23.815	-0.170	0.047	
23.820	0.394	0.038	
23.825	0.139	0.061	
23.830	-0.217	0.083	
23.835	0.143	0.071	
23.840	0.311	0.069	
23.845	-0.203	0.082	
23.850	-0.055	0.066	
23.855	0.412	0.051	
23.860	-0.080	0.065	
23.865	-0.142	0.066	
23.870	0.400	0.055	
23.875	0.162	0.078	
23.880	-0.205	0.098	
23.885	0.198	0.088	
23.890	0.377	0.093	
23.895	-0.181	0.114	
23.900	-0.034	0.102	
23.905	0.458	0.087	
23.910	-0.074	0.101	
23.915	-0.144	0.097	
23.920	0.398	0.079	
23.925	0.128	0.091	
23.930	-0.223	0.101	
23.935	0.162	0.079	
23.940	0.330	0.074	
23.945	-0.199	0.086	
23.950	-0.049	0.071	
23.955	0.417	0.056	
23.960	-0.104	0.070	
23.965	-0.187	0.065	
23.970	0.336	0.044	
23.975	0.078	0.051	
23.980	-0.245	0.057	
23.985	0.114	0.035	
23.990	0.305	0.032	
23.995	-0.207	0.048	
24.000	-0.075	0.039	
24.005	0.392	0.029	
24.010	-0.083	0.047	
24.015	-0.156	0.051	
24.020	0.415	0.044	
24.025	0.172	0.072	
24.030	-0.211	0.098	
24.035	0.142	0.087	
24.040	0.308	0.084	
24.045	-0.222	0.091	
24.050	-0.095	0.067	
24.055	0.331	0.040	
24.060	-0.122	0.039	
24.065	-0.210	0.026	
24.070	0.293	0.003	
24.075	0.044	0.011	
24.080	-0.280	0.017	
24.085	0.058	-0.004	
24.090	0.240	-0.010	
24.095	-0.234	0.003	
24.100	-0.113	-0.007	
24.105	0.319	-0.017	
24.110	-0.141	-0.001	
24.115	-0.216	-0.002	
24.120	0.337	-0.012	
24.125	0.175	0.014	
24.130	-0.153	0.049	
24.135	0.328	0.066	
24.140	0.467	0.107	
24.145	-0.167	0.158	
24.150	-0.080	0.157	
24.155	0.353	0.128	
24.160	-0.142	0.113	
24.165	-0.214	0.078	
24.170	0.285	0.033	
24.175	0.062	0.024	
24.180	-0.263	0.022	
24.185	0.096	0.000	
24.190	0.285	-0.001	
24.195	-0.208	0.020	
24.200	-0.072	0.017	
24.205	0.427	0.016	
24.210	-0.072	0.045	
24.215	-0.165	0.057	
24.220	0.362	0.050	
24.225	0.148	0.070	
24.230	-0.219	0.087	
24.235	0.143	0.073	
24.240	0.348	0.072	
24.245	-0.176	0.088	
24.250	-0.035	0.078	
24.255	0.464	0.069	
24.260	-0.040	0.091	
24.265	-0.139	0.096	
24.270	0.414	0.086	
24.275	0.204	0.106	
24.280	-0.177	0.126	
24.285	0.229	0.116	
24.290	0.414	0.122	
24.295	-0.171	0.143	
24.300	-0.034	0.129	
24.305	0.479	0.109	
24.310	-0.032	0.120	
24.315	-0.142	0.116	
24.320	0.380	0.096	
24.325	0.149	0.103	
24.330	-0.211	0.110	
24.335	0.159	0.087	
24.340	0.310	0.079	
24.345	-0.219	0.087	
24.350	-0.110	0.063	
24.355	0.360	0.036	
24.360	-0.090	0.040	
24.365	-0.179	0.035	
24.370	0.345	0.021	
24.375	0.111	0.039	
24.380	-0.242	0.056	
24.385	0.105	0.041	
24.390	0.307	0.039	
24.395	-0.208	0.055	
24.400	-0.078	0.043	
24.405	0.414	0.032	
24.410	-0.081	0.052	
24.415	-0.168	0.055	
24.420	0.383	0.045	
24.425	0.183	0.068	
24.430	-0.197	0.092	
24.435	0.124	0.083	
24.440	0.290	0.079	
24.445	-0.216	0.085	
24.450	-0.101	0.061	
24.455	0.337	0.034	
24.460	-0.133	0.035	
24.465	-0.236	0.021	
24.470	0.232	-0.006	
24.475	0.026	-0.007	
24.480	-0.286	-0.006	
24.485	0.013	-0.029	
24.490	0.223	-0.037	
24.495	-0.239	-0.024	
24.500	-0.142	-0.031	
24.505	0.319	-0.038	
24.510	-0.132	-0.018	
24.515	-0.248	-0.014	
24.520	0.217	-0.028	
24.525	0.044	-0.019	
24.530	-0.246	-0.009	
24.535	0.201	-0.013	
24.540	0.521	0.018	
24.545	-0.060	0.085	
24.550	0.061	0.123	
24.555	0.512	0.146	
24.560	-0.090	0.176	
24.565	-0.231	0.163	
24.570	0.198	0.110	
24.575	0.021	0.072	
24.580	-0.281	0.039	
24.585	-0.002	-0.010	
24.590	0.221	-0.035	
24.595	-0.251	-0.032	
24.600	-0.145	-0.045	
24.605	0.334	-0.052	
24.610	-0.092	-0.026	
24.615	-0.200	-0.011	
24.620	0.314	-0.010	
24.625	0.127	0.018	
24.630	-0.239	0.044	
24.635	0.093	0.037	
24.640	0.327	0.039	
24.645	-0.197	0.058	
24.650	-0.090	0.049	
24.655	0.402	0.037	
24.660	-0.078	0.054	
24.665	-0.187	0.054	
24.670	0.336	0.039	
24.675	0.168	0.055	
24.680	-0.208	0.074	
24.685	0.166	0.066	
24.690	0.388	0.073	
24.695	-0.167	0.099	
24.700	-0.040	0.094	
24.705	0.489	0.086	
24.710	-0.011	0.108	
24.715	-0.152	0.114	
24.720	0.376	0.099	
24.725	0.160	0.108	
24.730	-0.236	0.114	
24.735	0.085	0.085	
24.740	0.311	0.067	
24.745	-0.231	0.068	
24.750	-0.119	0.043	
24.755	0.319	0.016	
24.760	-0.110	0.019	
24.765	-0.223	0.011	
24.770	0.273	-0.008	
24.775	0.085	0.003	
24.780	-0.272	0.016	
24.785	0.024	-0.001	
24.790	0.244	-0.008	
24.795	-0.242	0.002	
24.800	-0.118	-0.009	
24.805	0.402	-0.017	
24.810	-0.068	0.011	
24.815	-0.184	0.027	
24.820	0.314	0.024	
24.825	0.140	0.045	
24.830	-0.239	0.064	
24.835	0.084	0.049	
24.840	0.307	0.044	
24.845	-0.202	0.056	
24.850	-0.106	0.042	
24.855	0.347	0.025	
24.860	-0.107	0.034	
24.865	-0.236	0.027	
24.870	0.230	0.003	
24.875	0.064	0.004	
24.880	-0.280	0.007	
24.885	0.001	-0.015	
24.890	0.221	-0.026	
24.895	-0.268	-0.019	
24.900	-0.164	-0.033	
24.905	0.220	-0.052	
24.910	-0.168	-0.046	
24.915	-0.271	-0.053	
24.920	0.171	-0.071	
24.925	0.032	-0.063	
24.930	-0.303	-0.050	
24.935	-0.031	-0.062	
24.940	0.195	-0.065	
24.945	-0.242	-0.048	
24.950	-0.106	-0.050	
24.955	0.539	-0.037	
24.960	0.142	0.027	
24.965	-0.078	0.088	
24.970	0.421	0.121	
24.975	0.146	0.156	
24.980	-0.287	0.165	
24.985	-0.046	0.117	
24.990	0.185	0.062	
24.995	-0.271	0.027	
25.000	-0.185	-0.021	
25.005	0.256	-0.058	
25.010	-0.141	-0.057	
25.015	-0.254	-0.059	
25.020	0.208	-0.069	
25.025	0.055	-0.052	
25.030	-0.272	-0.031	
25.035	0.026	-0.037	
25.040	0.249	-0.032	
25.045	-0.234	-0.010	
25.050	-0.138	-0.014	
25.055	0.350	-0.021	
25.060	-0.080	0.002	
25.065	-0.208	0.012	
25.070	0.302	0.006	
25.075	0.162	0.027	
25.080	-0.248	0.050	
25.085	0.055	0.039	
25.090	0.333	0.036	
25.095	-0.174	0.053	
25.100	-0.081	0.047	
25.105	0.455	0.041	
25.110	-0.005	0.068	
25.115	-0.148	0.083	
25.120	0.389	0.079	
25.125	0.255	0.103	
25.130	-0.200	0.128	
25.135	0.120	0.116	
25.140	0.369	0.107	
25.145	-0.179	0.115	
25.150	-0.106	0.093	
25.155	0.391	0.065	
25.160	-0.080	0.067	
25.165	-0.203	0.057	
25.170	0.278	0.032	
25.175	0.128	0.036	
25.180	-0.249	0.044	
25.185	0.076	0.027	
25.190	0.331	0.024	
25.195	-0.200	0.043	
25.200	-0.112	0.036	
25.205	0.380	0.024	
25.210	-0.072	0.040	
25.215	-0.208	0.042	
25.220	0.284	0.026	
25.225	0.145	0.036	
25.230	-0.237	0.050	
25.235	0.059	0.035	
25.240	0.337	0.032	
25.245	-0.182	0.049	
25.250	-0.107	0.043	
25.255	0.397	0.032	
25.260	-0.043	0.050	
25.265	-0.185	0.056	
25.270	0.314	0.044	
25.275	0.154	0.057	
25.280	-0.257	0.070	
25.285	0.018	0.048	
25.290	0.273	0.030	
25.295	-0.225	0.032	
25.300	-0.142	0.012	
25.305	0.310	-0.009	
25.310	-0.119	-0.001	
25.315	-0.245	-0.005	
25.320	0.189	-0.026	
25.325	0.061	-0.022	
25.330	-0.304	-0.016	
25.335	-0.029	-0.036	
25.340	0.240	-0.046	
25.345	-0.226	-0.031	
25.350	-0.139	-0.035	
25.355	0.305	-0.039	
25.360	-0.118	-0.018	
25.365	-0.240	-0.012	
25.370	0.295	-0.021	
25.375	0.288	0.008	
25.380	-0.119	0.055	
25.385	0.368	0.088	
25.390	0.605	0.144	
25.395	-0.097	0.213	
25.400	-0.097	0.222	
25.405	0.371	0.190	
25.410	-0.072	0.165	
25.415	-0.213	0.123	
25.420	0.229	0.067	
25.425	0.108	0.044	
25.430	-0.265	0.033	
25.435	0.015	0.002	
25.440	0.296	-0.010	
25.445	-0.211	0.004	
25.450	-0.126	-0.002	
25.455	0.374	-0.008	
25.460	-0.071	0.016	
25.465	-0.214	0.025	
25.470	0.270	0.015	
25.475	0.174	0.030	
25.480	-0.252	0.049	
25.485	0.038	0.036	
25.490	0.354	0.031	
25.495	-0.173	0.049	
25.500	-0.100	0.045	
25.505	0.461	0.039	
25.510	0.015	0.067	
25.515	-0.164	0.084	
25.520	0.369	0.079	
25.525	0.258	0.101	
25.530	-0.200	0.124	
25.535	0.102	0.111	
25.540	0.394	0.102	
25.545	-0.152	0.113	
25.550	-0.068	0.099	
25.555	0.466	0.082	
25.560	-0.017	0.097	
25.565	-0.190	0.098	
25.570	0.313	0.077	
25.575	0.189	0.081	
25.580	-0.226	0.089	
25.585	0.059	0.068	
25.590	0.333	0.055	
25.595	-0.202	0.063	
25.600	-0.126	0.046	
25.605	0.382	0.026	
25.610	-0.046	0.038	
25.615	-0.203	0.042	
25.620	0.272	0.027	
25.625	0.171	0.038	
25.630	-0.239	0.054	
25.635	0.047	0.040	
25.640	0.363	0.036	
25.645	-0.167	0.055	
25.650	-0.106	0.051	
25.655	0.409	0.041	
25.660	-0.035	0.060	
25.665	-0.202	0.064	
25.670	0.311	0.049	
25.675	0.211	0.061	
25.680	-0.211	0.080	
25.685	0.081	0.069	
25.690	0.392	0.066	
25.695	-0.159	0.085	
25.700	-0.106	0.077	
25.705	0.391	0.060	
25.710	-0.046	0.070	
25.715	-0.216	0.065	
25.720	0.229	0.040	
25.725	0.107	0.036	
25.730	-0.278	0.035	
25.735	-0.032	0.006	
25.740	0.238	-0.015	
25.745	-0.243	-0.013	
25.750	-0.184	-0.029	
25.755	0.281	-0.047	
25.760	-0.112	-0.035	
25.765	-0.271	-0.032	
25.770	0.145	-0.049	
25.775	0.044	-0.045	
25.780	-0.338	-0.039	
25.785	-0.097	-0.063	
25.790	0.198	-0.078	
25.795	-0.203	-0.067	
25.800	-0.092	-0.063	
25.805	0.533	-0.043	
25.810	0.062	0.023	
25.815	-0.187	0.073	
25.820	0.238	0.081	
25.825	0.084	0.087	
25.830	-0.312	0.078	
25.835	-0.086	0.030	
25.840	0.215	-0.011	
25.845	-0.234	-0.024	
25.850	-0.159	-0.045	
25.855	0.354	-0.056	
25.860	-0.066	-0.029	
25.865	-0.229	-0.011	
25.870	0.235	-0.013	
25.875	0.134	0.005	
25.880	-0.254	0.025	
25.885	0.029	0.014	
25.890	0.359	0.014	
25.895	-0.162	0.038	
25.900	-0.090	0.040	
25.905	0.460	0.039	
25.910	0.015	0.071	
25.915	-0.181	0.087	
25.920	0.318	0.078	
25.925	0.221	0.090	
25.930	-0.226	0.104	
25.935	0.064	0.084	
25.940	0.369	0.071	
25.945	-0.165	0.081	
25.950	-0.101	0.068	
25.955	0.449	0.053	
25.960	0.009	0.073	
25.965	-0.194	0.082	
25.970	0.304	0.068	
25.975	0.230	0.078	
25.980	-0.214	0.094	
25.985	0.081	0.079	
25.990	0.383	0.072	
25.995	-0.171	0.087	
26.000	-0.122	0.074	
26.005	0.403	0.054	
26.010	-0.023	0.064	
26.015	-0.210	0.064	
26.020	0.261	0.044	
26.025	0.201	0.050	
26.030	-0.242	0.063	
26.035	0.023	0.046	
26.040	0.345	0.036	
26.045	-0.184	0.049	
26.050	-0.133	0.039	
26.055	0.342	0.022	
26.060	-0.064	0.032	
26.065	-0.240	0.030	
26.070	0.217	0.008	
26.075	0.149	0.012	
26.080	-0.257	0.023	
26.085	0.006	0.008	
26.090	0.331	0.003	
26.095	-0.194	0.022	
26.100	-0.136	0.018	
26.105	0.402	0.010	
26.110	-0.020	0.034	
26.115	-0.200	0.047	
26.120	0.252	0.037	
26.125	0.166	0.047	
26.130	-0.266	0.058	
26.135	-0.045	0.033	
26.140	0.238	0.010	
26.145	-0.240	0.005	
26.150	-0.208	-0.019	
26.155	0.258	-0.045	
26.160	-0.106	-0.041	
26.165	-0.271	-0.041	
26.170	0.166	-0.056	
26.175	0.087	-0.046	
26.180	-0.304	-0.031	
26.185	-0.072	-0.045	
26.190	0.203	-0.055	
26.195	-0.249	-0.046	
26.200	-0.197	-0.056	
26.205	0.290	-0.067	
26.210	-0.080	-0.046	
26.215	-0.231	-0.032	
26.220	0.290	-0.030	
26.225	0.290	0.005	
26.230	-0.193	0.053	
26.235	0.033	0.064	
26.240	0.267	0.064	
26.245	-0.251	0.067	
26.250	-0.228	0.035	
26.255	0.212	-0.011	
26.260	-0.122	-0.027	
26.265	-0.292	-0.046	
26.270	0.127	-0.073	
26.275	0.107	-0.070	
26.280	-0.272	-0.052	
26.285	-0.045	-0.056	
26.290	0.236	-0.054	
26.295	-0.252	-0.034	
26.300	-0.199	-0.040	
26.305	0.284	-0.052	
26.310	-0.077	-0.035	
26.315	-0.236	-0.025	
26.320	0.235	-0.030	
26.325	0.178	-0.008	
26.330	-0.263	0.020	
26.335	-0.017	0.013	
26.340	0.336	0.009	
26.345	-0.173	0.027	
26.350	-0.133	0.025	
26.355	0.403	0.017	
26.360	0.003	0.042	
26.365	-0.214	0.055	
26.370	0.278	0.044	
26.375	0.264	0.059	
26.380	-0.211	0.083	
26.385	0.030	0.073	
26.390	0.359	0.065	
26.395	-0.159	0.076	
26.400	-0.121	0.063	
26.405	0.418	0.046	
26.410	0.012	0.063	
26.415	-0.216	0.070	
26.420	0.250	0.053	
26.425	0.204	0.057	
26.430	-0.252	0.067	
26.435	-0.006	0.046	
26.440	0.342	0.030	
26.445	-0.196	0.039	
26.450	-0.165	0.027	
26.455	0.314	0.006	
26.460	-0.063	0.013	
26.465	-0.258	0.011	
26.470	0.171	-0.011	
26.475	0.140	-0.010	
26.480	-0.283	0.001	
26.485	-0.029	-0.015	
26.490	0.350	-0.020	
26.495	-0.176	0.004	
26.500	-0.145	0.008	
26.505	0.391	0.006	
26.510	-0.019	0.032	
26.515	-0.214	0.045	
26.520	0.284	0.036	
26.525	0.249	0.052	
26.530	-0.226	0.077	
26.535	0.023	0.066	
26.540	0.347	0.056	
26.545	-0.176	0.066	
26.550	-0.148	0.051	
26.555	0.331	0.028	
26.560	-0.071	0.032	
26.565	-0.268	0.025	
26.570	0.145	-0.005	
26.575	0.108	-0.013	
26.580	-0.287	-0.011	
26.585	-0.057	-0.032	
26.590	0.275	-0.042	
26.595	-0.207	-0.026	
26.600	-0.161	-0.027	
26.605	0.357	-0.031	
26.610	-0.028	-0.003	
26.615	-0.240	0.015	
26.620	0.204	0.006	
26.625	0.180	0.017	
26.630	-0.228	0.035	
26.635	0.064	0.027	
26.640	0.476	0.036	
26.645	-0.074	0.077	
26.650	-0.043	0.096	
26.655	0.457	0.102	
26.660	-0.037	0.124	
26.665	-0.269	0.117	
26.670	0.130	0.072	
26.675	0.087	0.040	
26.680	-0.286	0.017	
26.685	-0.046	-0.021	
26.690	0.319	-0.039	
26.695	-0.176	-0.021	
26.700	-0.161	-0.018	
26.705	0.372	-0.018	
26.710	-0.005	0.011	
26.715	-0.210	0.031	
26.720	0.244	0.027	
26.725	0.211	0.042	
26.730	-0.232	0.062	
26.735	-0.008	0.048	
26.740	0.368	0.038	
26.745	-0.156	0.052	
26.750	-0.115	0.047	
26.755	0.458	0.039	
26.760	0.038	0.067	
26.765	-0.188	0.084	
26.770	0.293	0.075	
26.775	0.299	0.089	
26.780	-0.182	0.112	
26.785	0.101	0.104	
26.790	0.502	0.105	
26.795	-0.084	0.134	
26.800	-0.061	0.135	
26.805	0.524	0.126	
26.810	0.107	0.148	
26.815	-0.171	0.158	
26.820	0.324	0.138	
26.825	0.308	0.139	
26.830	-0.190	0.148	
26.835	0.062	0.125	
26.840	0.438	0.108	
26.845	-0.139	0.116	
26.850	-0.115	0.101	
26.855	0.398	0.076	
26.860	-0.005	0.081	
26.865	-0.222	0.076	
26.870	0.218	0.049	
26.875	0.203	0.046	
26.880	-0.240	0.054	
26.885	0.003	0.035	
26.890	0.382	0.026	
26.895	-0.168	0.044	
26.900	-0.138	0.041	
26.905	0.409	0.030	
26.910	0.024	0.052	
26.915	-0.225	0.064	
26.920	0.236	0.049	
26.925	0.266	0.056	
26.930	-0.205	0.076	
26.935	0.065	0.067	
26.940	0.437	0.068	
26.945	-0.129	0.093	
26.950	-0.113	0.091	
26.955	0.449	0.078	
26.960	0.050	0.095	
26.965	-0.202	0.102	
26.970	0.275	0.083	
26.975	0.241	0.086	
26.980	-0.239	0.095	
26.985	-0.035	0.070	
26.990	0.321	0.045	
26.995	-0.182	0.044	
27.000	-0.171	0.025	
27.005	0.345	0.003	
27.010	-0.026	0.015	
27.015	-0.251	0.019	
27.020	0.186	0.002	
27.025	0.189	0.008	
27.030	-0.246	0.024	
27.035	-0.043	0.011	
27.040	0.307	0.002	
27.045	-0.184	0.015	
27.050	-0.156	0.008	
27.055	0.418	0.000	
27.060	0.099	0.032	
27.065	-0.110	0.065	
27.070	0.482	0.086	
27.075	0.382	0.137	
27.080	-0.222	0.185	
27.085	-0.029	0.170	
27.090	0.311	0.132	
27.095	-0.196	0.108	
27.100	-0.179	0.064	
27.105	0.337	0.021	
27.110	-0.002	0.018	
27.115	-0.234	0.018	
27.120	0.229	0.004	
27.125	0.261	0.018	
27.130	-0.205	0.047	
27.135	0.023	0.047	
27.140	0.402	0.049	
27.145	-0.142	0.073	
27.150	-0.142	0.070	
27.155	0.423	0.055	
27.160	0.058	0.073	
27.165	-0.190	0.084	
27.170	0.285	0.073	
27.175	0.293	0.085	
27.180	-0.194	0.106	
27.185	0.065	0.096	
27.190	0.458	0.091	
27.195	-0.103	0.113	
27.200	-0.075	0.111	
27.205	0.537	0.102	
27.210	0.194	0.134	
27.215	-0.147	0.161	
27.220	0.348	0.156	
27.225	0.391	0.168	
27.230	-0.142	0.189	
27.235	0.102	0.173	
27.240	0.530	0.161	
27.245	-0.072	0.176	
27.250	-0.078	0.165	
27.255	0.472	0.140	
27.260	0.081	0.146	
27.265	-0.203	0.141	
27.270	0.240	0.109	
27.275	0.252	0.098	
27.280	-0.220	0.098	
27.285	-0.031	0.070	
27.290	0.377	0.048	
27.295	-0.144	0.055	
27.300	-0.159	0.045	
27.305	0.353	0.027	
27.310	0.013	0.039	
27.315	-0.222	0.045	
27.320	0.209	0.029	
27.325	0.249	0.037	
27.330	-0.229	0.056	
27.335	-0.022	0.044	
27.340	0.394	0.036	
27.345	-0.121	0.055	
27.350	-0.119	0.056	
27.355	0.446	0.050	
27.360	0.064	0.076	
27.365	-0.199	0.092	
27.370	0.279	0.081	
27.375	0.299	0.091	
27.380	-0.211	0.109	
27.385	0.017	0.094	
27.390	0.411	0.079	
27.395	-0.126	0.090	
27.400	-0.136	0.080	
27.405	0.371	0.059	
27.410	0.004	0.066	
27.415	-0.245	0.064	
27.420	0.159	0.035	
27.425	0.157	0.026	
27.430	-0.271	0.025	
27.435	-0.074	-0.000	
27.440	0.304	-0.018	
27.445	-0.176	-0.007	
27.450	-0.184	-0.011	
27.455	0.313	-0.022	
27.460	-0.009	-0.003	
27.465	-0.245	0.009	
27.470	0.160	-0.002	
27.475	0.203	0.005	
27.480	-0.246	0.023	
27.485	0.047	0.016	
27.490	0.571	0.029	
27.495	0.061	0.088	
27.500	0.023	0.133	
27.505	0.556	0.162	
27.510	0.107	0.203	
27.515	-0.226	0.211	
27.520	0.125	0.166	
27.525	0.169	0.122	
27.530	-0.258	0.087	
27.535	-0.064	0.035	
27.540	0.321	-0.000	
27.545	-0.176	0.001	
27.550	-0.177	-0.008	
27.555	0.339	-0.020	
27.560	0.000	0.001	
27.565	-0.229	0.016	
27.570	0.172	0.007	
27.575	0.249	0.018	
27.580	-0.222	0.041	
27.585	-0.020	0.035	
27.590	0.386	0.031	
27.595	-0.126	0.052	
27.600	-0.127	0.054	
27.605	0.426	0.046	
27.610	0.072	0.071	
27.615	-0.216	0.086	
27.620	0.236	0.072	
27.625	0.310	0.078	
27.630	-0.202	0.097	
27.635	0.024	0.085	
27.640	0.473	0.078	
27.645	-0.078	0.102	
27.650	-0.110	0.104	
27.655	0.455	0.093	
27.660	0.124	0.113	
27.665	-0.179	0.126	
27.670	0.270	0.111	
27.675	0.295	0.113	
27.680	-0.213	0.123	
27.685	-0.034	0.098	
27.690	0.386	0.072	
27.695	-0.145	0.074	
27.700	-0.193	0.056	
27.705	0.285	0.026	
27.710	-0.023	0.023	
27.715	-0.260	0.016	
27.720	0.114	-0.010	
27.725	0.172	-0.015	
27.730	-0.260	-0.005	
27.735	-0.075	-0.019	
27.740	0.321	-0.026	
27.745	-0.161	-0.006	
27.750	-0.194	-0.004	
27.755	0.302	-0.014	
27.760	0.003	0.003	
27.765	-0.258	0.013	
27.770	0.136	-0.002	
27.775	0.232	0.002	
27.780	-0.240	0.021	
27.785	-0.054	0.012	
27.790	0.403	0.008	
27.795	-0.129	0.033	
27.800	-0.167	0.039	
27.805	0.374	0.030	
27.810	0.056	0.050	
27.815	-0.225	0.062	
27.820	0.206	0.048	
27.825	0.232	0.052	
27.830	-0.255	0.063	
27.835	-0.097	0.040	
27.840	0.301	0.014	
27.845	-0.182	0.014	
27.850	-0.226	-0.002	
27.855	0.217	-0.029	
27.860	-0.063	-0.030	
27.865	-0.313	-0.035	
27.870	0.027	-0.062	
27.875	0.131	-0.070	
27.880	-0.291	-0.061	
27.885	-0.127	-0.071	
27.890	0.227	-0.078	
27.895	-0.211	-0.062	
27.900	-0.249	-0.063	
27.905	0.197	-0.075	
27.910	-0.058	-0.064	
27.915	-0.294	-0.056	
27.920	0.169	-0.064	
27.925	0.365	-0.037	
27.930	-0.115	0.019	
27.935	0.127	0.055	
27.940	0.522	0.093	
27.945	-0.106	0.144	
27.950	-0.222	0.146	
27.955	0.221	0.105	
27.960	-0.045	0.074	
27.965	-0.287	0.038	
27.970	0.044	-0.014	
27.975	0.137	-0.039	
27.980	-0.291	-0.043	
27.985	-0.141	-0.064	
27.990	0.253	-0.077	
27.995	-0.181	-0.061	
28.000	-0.220	-0.057	
28.005	0.259	-0.061	
28.010	-0.013	-0.039	
28.015	-0.269	-0.022	
28.020	0.093	-0.031	
28.025	0.203	-0.024	
28.030	-0.249	-0.005	
28.035	-0.077	-0.012	
28.040	0.353	-0.015	
28.045	-0.129	0.009	
28.050	-0.184	0.015	
28.055	0.319	0.007	
28.060	0.038	0.025	
28.065	-0.245	0.036	
28.070	0.154	0.021	
28.075	0.252	0.024	
28.080	-0.223	0.041	
28.085	-0.049	0.031	
28.090	0.394	0.023	
28.095	-0.119	0.044	
28.100	-0.168	0.045	
28.105	0.371	0.034	
28.110	0.085	0.052	
28.115	-0.223	0.066	
28.120	0.133	0.050	
28.125	0.214	0.045	
28.130	-0.255	0.048	
28.135	-0.095	0.023	
28.140	0.325	0.000	
28.145	-0.155	0.008	
28.150	-0.225	0.000	
28.155	0.272	-0.019	
28.160	-0.022	-0.011	
28.165	-0.275	-0.007	
28.170	0.084	-0.027	
28.175	0.215	-0.026	
28.180	-0.258	-0.010	
28.185	-0.101	-0.018	
28.190	0.334	-0.025	
28.195	-0.150	-0.004	
28.200	-0.213	-0.002	
28.205	0.266	-0.014	
28.210	0.009	-0.003	
28.215	-0.262	0.004	
28.220	0.113	-0.011	
28.225	0.255	-0.007	
28.230	-0.225	0.015	
28.235	-0.077	0.010	
28.240	0.347	0.005	
28.245	-0.130	0.024	
28.250	-0.168	0.025	
28.255	0.365	0.016	
28.260	0.081	0.038	
28.265	-0.240	0.055	
28.270	0.133	0.041	
28.275	0.243	0.039	
28.280	-0.257	0.047	
28.285	-0.139	0.024	
28.290	0.273	-0.004	
28.295	-0.174	-0.007	
28.300	-0.243	-0.021	
28.305	0.208	-0.045	
28.310	-0.031	-0.042	
28.315	-0.291	-0.040	
28.320	0.058	-0.057	
28.325	0.208	-0.053	
28.330	-0.271	-0.032	
28.335	-0.124	-0.037	
28.340	0.285	-0.043	
28.345	-0.168	-0.026	
28.350	-0.232	-0.025	
28.355	0.282	-0.037	
28.360	0.110	-0.015	
28.365	-0.147	0.015	
28.370	0.386	0.036	
28.375	0.519	0.093	
28.380	-0.141	0.163	
28.385	-0.051	0.176	
28.390	0.348	0.154	
28.395	-0.161	0.138	
28.400	-0.242	0.094	
28.405	0.249	0.037	
28.410	0.046	0.016	
28.415	-0.252	0.007	
28.420	0.108	-0.015	
28.425	0.250	-0.013	
28.430	-0.231	0.007	
28.435	-0.071	0.003	
28.440	0.386	0.001	
28.445	-0.104	0.028	
28.450	-0.187	0.035	
28.455	0.339	0.026	
28.460	0.116	0.045	
28.465	-0.211	0.062	
28.470	0.169	0.053	
28.475	0.336	0.060	
28.480	-0.177	0.083	
28.485	-0.042	0.076	
28.490	0.463	0.068	
28.495	-0.046	0.090	
28.500	-0.119	0.096	
28.505	0.423	0.088	
28.510	0.185	0.109	
28.515	-0.181	0.128	
28.520	0.227	0.116	
28.525	0.386	0.119	
28.530	-0.161	0.137	
28.535	-0.017	0.123	
28.540	0.490	0.107	
28.545	-0.029	0.123	
28.550	-0.130	0.121	
28.555	0.409	0.104	
28.560	0.157	0.115	
28.565	-0.210	0.123	
28.570	0.171	0.100	
28.575	0.337	0.092	
28.580	-0.190	0.101	
28.585	-0.040	0.083	
28.590	0.429	0.067	
28.595	-0.081	0.080	
28.600	-0.190	0.075	
28.605	0.340	0.054	
28.610	0.122	0.061	
28.615	-0.219	0.071	
28.620	0.165	0.055	
28.625	0.334	0.058	
28.630	-0.203	0.078	
28.635	-0.084	0.066	
28.640	0.371	0.048	
28.645	-0.092	0.056	
28.650	-0.173	0.051	
28.655	0.356	0.035	
28.660	0.146	0.052	
28.665	-0.220	0.071	
28.670	0.145	0.060	
28.675	0.331	0.062	
28.680	-0.197	0.080	
28.685	-0.035	0.069	
28.690	0.467	0.060	
28.695	-0.049	0.084	
28.700	-0.176	0.089	
28.705	0.331	0.072	
28.710	0.107	0.078	
28.715	-0.240	0.080	
28.720	0.082	0.053	
28.725	0.236	0.037	
28.730	-0.242	0.037	
28.735	-0.126	0.013	
28.740	0.318	-0.009	
28.745	-0.129	-0.001	
28.750	-0.226	-0.004	
28.755	0.241	-0.021	
28.760	0.026	-0.012	
28.765	-0.284	-0.005	
28.770	0.018	-0.025	
28.775	0.189	-0.033	
28.780	-0.268	-0.025	
28.785	-0.130	-0.038	
28.790	0.376	-0.045	
28.795	-0.051	-0.013	
28.800	-0.112	0.012	
28.805	0.525	0.034	
28.810	0.302	0.096	
28.815	-0.181	0.152	
28.820	0.097	0.154	
28.825	0.224	0.137	
28.830	-0.268	0.116	
28.835	-0.162	0.063	
28.840	0.256	0.010	
28.845	-0.142	-0.009	
28.850	-0.232	-0.028	
28.855	0.233	-0.050	
28.860	0.090	-0.036	
28.865	-0.243	-0.015	
28.870	0.090	-0.016	
28.875	0.313	-0.002	
28.880	-0.203	0.029	
28.885	-0.104	0.030	
28.890	0.372	0.023	
28.895	-0.083	0.041	
28.900	-0.205	0.042	
28.905	0.279	0.025	
28.910	0.124	0.034	
28.915	-0.223	0.046	
28.920	0.143	0.036	
28.925	0.366	0.043	
28.930	-0.174	0.072	
28.935	-0.068	0.070	
28.940	0.458	0.063	
28.945	-0.057	0.085	
28.950	-0.171	0.088	
28.955	0.366	0.071	
28.960	0.183	0.085	
28.965	-0.210	0.100	
28.970	0.130	0.084	
28.975	0.342	0.078	
28.980	-0.188	0.090	
28.985	-0.080	0.074	
28.990	0.376	0.054	
28.995	-0.092	0.061	
29.000	-0.202	0.052	
29.005	0.288	0.029	
29.010	0.091	0.034	
29.015	-0.271	0.039	
29.020	0.047	0.016	
29.025	0.255	0.005	
29.030	-0.240	0.014	
29.035	-0.139	-0.002	
29.040	0.314	-0.018	
29.045	-0.116	-0.006	
29.050	-0.222	-0.005	
29.055	0.263	-0.018	
29.060	0.091	-0.002	
29.065	-0.271	0.014	
29.070	0.032	-0.000	
29.075	0.224	-0.006	
29.080	-0.240	0.003	
29.085	-0.135	-0.011	
29.090	0.348	-0.023	
29.095	-0.084	-0.003	
29.100	-0.210	0.006	
29.105	0.284	-0.001	
29.110	0.131	0.019	
29.115	-0.232	0.039	
29.120	0.097	0.031	
29.125	0.321	0.035	
29.130	-0.194	0.055	
29.135	-0.098	0.047	
29.140	0.374	0.034	
29.145	-0.101	0.046	
29.150	-0.234	0.041	
29.155	0.223	0.015	
29.160	0.047	0.011	
29.165	-0.289	0.009	
29.170	-0.031	-0.020	
29.175	0.208	-0.037	
29.180	-0.242	-0.032	
29.185	-0.153	-0.044	
29.190	0.304	-0.052	
29.195	-0.116	-0.031	
29.200	-0.239	-0.023	
29.205	0.227	-0.032	
29.210	0.062	-0.017	
29.215	-0.294	-0.004	
29.220	0.003	-0.021	
29.225	0.284	-0.026	
29.230	-0.173	-0.005	
29.235	0.024	0.005	
29.240	0.640	0.032	
29.245	0.076	0.103	
29.250	-0.162	0.148	
29.255	0.273	0.144	
29.260	0.076	0.137	
29.265	-0.291	0.114	
29.270	-0.025	0.058	
29.275	0.229	0.014	
29.280	-0.242	-0.001	
29.285	-0.144	-0.027	
29.290	0.343	-0.043	
29.295	-0.103	-0.023	
29.300	-0.245	-0.014	
29.305	0.232	-0.023	
29.310	0.084	-0.010	
29.315	-0.257	0.005	
29.320	0.029	-0.007	
29.325	0.293	-0.007	
29.330	-0.205	0.013	
