Vernier Format 2
ecg4.txt 10/19/2025 10:20:3
Run 1
Time	Potential	EKG	
T	P	E	
s	mV	mV	

0.000	3.105	0.143	
0.005	-0.957	0.430	
0.010	1.404	0.611	
0.015	3.101	0.816	
0.020	-0.599	1.089	
0.025	-0.564	1.084	
0.030	3.108	0.946	
0.035	0.190	0.972	
0.040	-0.994	0.921	
0.045	2.297	0.749	
0.050	1.965	0.783	
0.055	-0.994	0.897	
0.060	0.040	0.788	
0.065	2.794	0.676	
0.070	-0.993	0.710	
0.075	-0.994	0.587	
0.080	2.220	0.383	
0.085	-0.697	0.339	
0.090	-0.996	0.247	
0.095	0.334	0.047	
0.100	0.921	-0.032	
0.105	-0.994	-0.011	
0.110	-0.473	-0.069	
0.115	3.034	-0.035	
0.120	-0.993	0.201	
0.125	-0.994	0.282	
0.130	2.273	0.237	
0.135	-0.451	0.315	
0.140	-0.994	0.312	
0.145	0.634	0.170	
0.150	0.255	0.093	
0.155	-0.996	0.045	
0.160	-0.607	-0.095	
0.165	1.465	-0.181	
0.170	-0.993	-0.128	
0.175	-0.996	-0.149	
0.180	1.326	-0.208	
0.185	-0.971	-0.167	
0.190	-0.996	-0.190	
0.195	0.346	-0.287	
0.200	0.076	-0.293	
0.205	-0.996	-0.264	
0.210	-0.640	-0.319	
0.215	1.374	-0.329	
0.220	-0.994	-0.222	
0.225	-0.994	-0.202	
0.230	1.498	-0.224	
0.235	-0.919	-0.143	
0.240	-0.996	-0.139	
0.245	0.695	-0.213	
0.250	0.315	-0.178	
0.255	-0.994	-0.112	
0.260	-0.340	-0.152	
0.265	2.047	-0.126	
0.270	-0.994	0.037	
0.275	-0.994	0.067	
0.280	2.547	0.050	
0.285	-0.413	0.202	
0.290	-0.994	0.273	
0.295	1.977	0.238	
0.300	1.562	0.386	
0.305	-0.994	0.577	
0.310	0.521	0.568	
0.315	3.108	0.605	
0.320	-0.977	0.777	
0.325	-0.704	0.739	
0.330	3.105	0.617	
0.335	-0.085	0.694	
0.340	-0.993	0.693	
0.345	2.463	0.582	
0.350	1.919	0.691	
0.355	-0.993	0.862	
0.360	0.756	0.818	
0.365	3.111	0.814	
0.370	-0.922	0.941	
0.375	-0.663	0.857	
0.380	3.105	0.698	
0.385	-0.079	0.743	
0.390	-0.994	0.718	
0.395	2.357	0.586	
0.400	1.698	0.664	
0.405	-0.993	0.799	
0.410	0.366	0.721	
0.415	2.756	0.665	
0.420	-0.993	0.740	
0.425	-0.916	0.634	
0.430	2.634	0.456	
0.435	-0.473	0.463	
0.440	-0.993	0.413	
0.445	1.991	0.291	
0.450	1.591	0.389	
0.455	-0.994	0.558	
0.460	0.593	0.547	
0.465	2.957	0.586	
0.470	-0.993	0.752	
0.475	-0.875	0.699	
0.480	2.729	0.543	
0.485	-0.462	0.557	
0.490	-0.994	0.498	
0.495	1.727	0.344	
0.500	1.049	0.366	
0.505	-0.994	0.440	
0.510	0.040	0.354	
0.515	2.335	0.312	
0.520	-0.993	0.405	
0.525	-0.994	0.346	
0.530	2.343	0.224	
0.535	-0.617	0.265	
0.540	-0.994	0.241	
0.545	1.374	0.128	
0.550	0.652	0.160	
0.555	-0.996	0.224	
0.560	-0.180	0.144	
0.565	1.931	0.104	
0.570	-0.994	0.190	
0.575	-0.994	0.148	
0.580	1.930	0.052	
0.585	-0.803	0.090	
0.590	-0.996	0.061	
0.595	1.108	-0.042	
0.600	0.428	-0.009	
0.605	-0.996	0.054	
0.610	-0.159	-0.005	
0.615	2.131	0.005	
0.620	-0.994	0.152	
0.625	-0.994	0.157	
0.630	2.503	0.109	
0.635	-0.503	0.227	
0.640	-0.994	0.266	
0.645	1.989	0.213	
0.650	1.343	0.347	
0.655	-0.994	0.519	
0.660	0.508	0.502	
0.665	2.965	0.538	
0.670	-0.991	0.708	
0.675	-0.764	0.671	
0.680	3.089	0.555	
0.685	-0.220	0.636	
0.690	-0.994	0.634	
Vernier Format 2
ecg4.txt 10/19/2025 10:20:3
Run 2
Time	Potential	EKG	
T	P	E	
s	mV	mV	

0.000	-0.220	-0.010	
0.005	0.383	-0.016	
0.010	0.130	0.015	
0.015	-0.284	0.044	
0.020	0.148	0.037	
0.025	0.358	0.044	
0.030	-0.236	0.068	
0.035	-0.081	0.058	
0.040	0.469	0.046	
0.045	-0.104	0.066	
0.050	-0.218	0.066	
0.055	0.390	0.047	
0.060	0.120	0.060	
0.065	-0.268	0.072	
0.070	0.203	0.055	
0.075	0.372	0.060	
0.080	-0.229	0.084	
0.085	-0.082	0.073	
0.090	0.444	0.056	
0.095	-0.146	0.068	
0.100	-0.259	0.056	
0.105	0.312	0.024	
0.110	0.014	0.021	
0.115	-0.342	0.016	
0.120	0.043	-0.019	
0.125	0.251	-0.033	
0.130	-0.299	-0.022	
0.135	-0.156	-0.036	
0.140	0.341	-0.048	
0.145	-0.197	-0.030	
0.150	-0.297	-0.032	
0.155	0.245	-0.052	
0.160	-0.011	-0.044	
0.165	-0.332	-0.037	
0.170	0.130	-0.052	
0.175	0.424	-0.033	
0.180	-0.122	0.021	
0.185	0.168	0.060	
0.190	0.721	0.111	
0.195	-0.021	0.189	
0.200	-0.178	0.216	
0.205	0.395	0.190	
0.210	0.061	0.173	
0.215	-0.306	0.142	
0.220	0.073	0.079	
0.225	0.250	0.037	
0.230	-0.287	0.023	
0.235	-0.120	-0.008	
0.240	0.380	-0.029	
0.245	-0.168	-0.012	
0.250	-0.268	-0.012	
0.255	0.320	-0.028	
0.260	0.047	-0.011	
0.265	-0.297	0.005	
0.270	0.151	-0.007	
0.275	0.346	0.005	
0.280	-0.238	0.038	
0.285	-0.078	0.037	
0.290	0.451	0.033	
0.295	-0.116	0.057	
0.300	-0.220	0.059	
0.305	0.389	0.041	
0.310	0.119	0.056	
0.315	-0.277	0.069	
0.320	0.200	0.052	
0.325	0.421	0.059	
0.330	-0.188	0.091	
0.335	-0.034	0.090	
0.340	0.492	0.084	
0.345	-0.110	0.105	
0.350	-0.194	0.099	
0.355	0.454	0.076	
0.360	0.154	0.091	
0.365	-0.261	0.104	
0.370	0.236	0.086	
0.375	0.392	0.089	
0.380	-0.239	0.110	
0.385	-0.081	0.092	
0.390	0.463	0.069	
0.395	-0.119	0.079	
0.400	-0.218	0.069	
0.405	0.398	0.045	
0.410	0.120	0.056	
0.415	-0.250	0.070	
0.420	0.261	0.058	
0.425	0.419	0.073	
0.430	-0.195	0.109	
0.435	-0.031	0.106	
0.440	0.521	0.098	
0.445	-0.095	0.118	
0.450	-0.201	0.112	
0.455	0.415	0.085	
0.460	0.116	0.090	
0.465	-0.271	0.093	
0.470	0.152	0.065	
0.475	0.302	0.054	
0.480	-0.270	0.062	
0.485	-0.107	0.038	
0.490	0.384	0.015	
0.495	-0.169	0.023	
0.500	-0.277	0.012	
0.505	0.264	-0.016	
0.510	0.009	-0.016	
0.515	-0.326	-0.014	
0.520	0.084	-0.037	
0.525	0.250	-0.037	
0.530	-0.296	-0.017	
0.535	-0.127	-0.026	
0.540	0.448	-0.030	
0.545	-0.081	0.005	
0.550	-0.113	0.030	
0.555	0.614	0.050	
0.560	0.253	0.114	
0.565	-0.233	0.166	
0.570	0.178	0.159	
0.575	0.294	0.145	
0.580	-0.282	0.134	
0.585	-0.110	0.086	
0.590	0.401	0.042	
0.595	-0.149	0.038	
0.600	-0.247	0.022	
0.605	0.343	-0.004	
0.610	0.067	0.008	
0.615	-0.290	0.020	
0.620	0.157	0.007	
0.625	0.329	0.015	
0.630	-0.236	0.043	
0.635	-0.040	0.040	
0.640	0.521	0.041	
0.645	-0.079	0.076	
0.650	-0.180	0.088	
0.655	0.450	0.078	
0.660	0.131	0.098	
0.665	-0.262	0.110	
0.670	0.215	0.088	
0.675	0.402	0.087	
0.680	-0.201	0.108	
0.685	-0.006	0.098	
0.690	0.567	0.092	
0.695	-0.050	0.121	
0.700	-0.160	0.127	
0.705	0.500	0.113	
0.710	0.210	0.133	
0.715	-0.210	0.152	
0.720	0.303	0.137	
0.725	0.491	0.145	
0.730	-0.163	0.174	
0.735	0.021	0.165	
0.740	0.562	0.150	
0.745	-0.075	0.165	
0.750	-0.185	0.152	
0.755	0.434	0.117	
0.760	0.136	0.116	
0.765	-0.238	0.116	
0.770	0.255	0.090	
0.775	0.410	0.093	
0.780	-0.215	0.116	
0.785	-0.038	0.104	
0.790	0.489	0.088	
0.795	-0.085	0.103	
0.800	-0.185	0.098	
0.805	0.408	0.075	
0.810	0.134	0.085	
0.815	-0.250	0.094	
0.820	0.194	0.073	
0.825	0.361	0.073	
0.830	-0.233	0.090	
0.835	-0.075	0.074	
0.840	0.454	0.056	
0.845	-0.127	0.069	
0.850	-0.223	0.062	
0.855	0.355	0.037	
0.860	0.024	0.041	
0.865	-0.302	0.041	
0.870	0.108	0.011	
0.875	0.287	0.004	
0.880	-0.273	0.018	
0.885	-0.111	0.005	
0.890	0.395	-0.007	
0.895	-0.163	0.012	
0.900	-0.253	0.011	
0.905	0.338	-0.007	
0.910	0.131	0.011	
0.915	-0.227	0.035	
0.920	0.312	0.040	
0.925	0.479	0.075	
0.930	-0.200	0.128	
0.935	-0.072	0.131	
0.940	0.384	0.110	
0.945	-0.183	0.103	
0.950	-0.279	0.069	
0.955	0.277	0.018	
0.960	0.003	0.002	
0.965	-0.319	-0.007	
0.970	0.078	-0.037	
0.975	0.268	-0.039	
0.980	-0.273	-0.018	
0.985	-0.104	-0.021	
0.990	0.393	-0.023	
0.995	-0.149	0.005	
1.000	-0.229	0.011	
1.005	0.373	0.002	
1.010	0.114	0.026	
1.015	-0.256	0.049	
1.020	0.200	0.042	
1.025	0.357	0.054	
1.030	-0.239	0.081	
1.035	-0.085	0.070	
1.040	0.428	0.052	
1.045	-0.142	0.063	
1.050	-0.230	0.053	
1.055	0.352	0.026	
1.060	0.084	0.034	
1.065	-0.271	0.043	
1.070	0.192	0.027	
1.075	0.427	0.039	
1.080	-0.191	0.078	
1.085	-0.018	0.083	
1.090	0.488	0.083	
1.095	-0.089	0.107	
1.100	-0.178	0.106	
1.105	0.441	0.085	
1.110	0.104	0.096	
1.115	-0.287	0.101	
1.120	0.152	0.070	
1.125	0.348	0.059	
1.130	-0.221	0.071	
1.135	-0.046	0.058	
1.140	0.526	0.050	
1.145	-0.079	0.080	
1.150	-0.183	0.088	
1.155	0.530	0.080	
1.160	0.250	0.113	
1.165	-0.226	0.146	
1.170	0.226	0.136	
1.175	0.381	0.134	
1.180	-0.206	0.144	
1.185	-0.047	0.119	
1.190	0.448	0.092	
1.195	-0.133	0.094	
1.200	-0.253	0.075	
1.205	0.280	0.035	
1.210	0.035	0.025	
1.215	-0.276	0.019	
1.220	0.169	-0.004	
1.225	0.329	0.004	
1.230	-0.270	0.033	
1.235	-0.159	0.024	
1.240	0.265	0.000	
1.245	-0.226	-0.005	
1.250	-0.326	-0.030	
1.255	0.166	-0.070	
1.260	-0.069	-0.079	
1.265	-0.355	-0.084	
1.270	0.072	-0.104	
1.275	0.343	-0.088	
1.280	-0.213	-0.039	
1.285	0.017	-0.011	
1.290	0.552	0.022	
1.295	-0.101	0.081	
1.300	-0.253	0.100	
1.305	0.248	0.074	
1.310	-0.081	0.055	
1.315	-0.390	0.022	
1.320	0.011	-0.038	
1.325	0.219	-0.067	
1.330	-0.281	-0.061	
1.335	-0.139	-0.069	
1.340	0.323	-0.071	
1.345	-0.209	-0.045	
1.350	-0.337	-0.044	
1.355	0.079	-0.072	
1.360	-0.124	-0.087	
1.365	-0.390	-0.104	
1.370	-0.046	-0.137	
1.375	0.117	-0.145	
1.380	-0.340	-0.129	
1.385	-0.194	-0.132	
1.390	0.261	-0.131	
1.395	-0.239	-0.102	
1.400	-0.360	-0.096	
1.405	0.111	-0.114	
1.410	-0.089	-0.112	
1.415	-0.416	-0.113	
1.420	-0.070	-0.138	
1.425	0.110	-0.146	
1.430	-0.326	-0.131	
1.435	-0.177	-0.132	
1.440	0.315	-0.126	
1.445	-0.166	-0.086	
1.450	-0.267	-0.064	
1.455	0.276	-0.060	
1.460	0.041	-0.033	
1.465	-0.308	-0.011	
1.470	0.119	-0.019	
1.475	0.314	-0.008	
1.480	-0.227	0.022	
1.485	-0.098	0.022	
1.490	0.418	0.018	
1.495	-0.114	0.041	
1.500	-0.188	0.045	
1.505	0.460	0.037	
1.510	0.190	0.069	
1.515	-0.238	0.100	
1.520	0.229	0.094	
1.525	0.437	0.104	
1.530	-0.174	0.133	
1.535	-0.008	0.126	
1.540	0.544	0.116	
1.545	-0.020	0.138	
1.550	-0.143	0.141	
1.555	0.469	0.123	
1.560	0.137	0.135	
1.565	-0.271	0.138	
1.570	0.151	0.102	
1.575	0.302	0.081	
1.580	-0.262	0.078	
1.585	-0.116	0.047	
1.590	0.376	0.017	
1.595	-0.156	0.022	
1.600	-0.264	0.011	
1.605	0.216	-0.018	
1.610	-0.052	-0.024	
1.615	-0.370	-0.034	
1.620	-0.037	-0.071	
1.625	0.111	-0.091	
1.630	-0.329	-0.091	
1.635	-0.178	-0.108	
1.640	0.311	-0.113	
1.645	-0.154	-0.082	
1.650	-0.213	-0.061	
1.655	0.383	-0.049	
1.660	0.055	-0.006	
1.665	-0.352	0.023	
1.670	-0.035	0.001	
1.675	0.113	-0.024	
1.680	-0.349	-0.039	
1.685	-0.204	-0.076	
1.690	0.250	-0.103	
1.695	-0.194	-0.093	
1.700	-0.293	-0.091	
1.705	0.223	-0.099	
1.710	-0.012	-0.078	
1.715	-0.348	-0.060	
1.720	0.023	-0.072	
1.725	0.253	-0.067	
1.730	-0.273	-0.040	
1.735	-0.136	-0.039	
1.740	0.396	-0.039	
1.745	-0.125	-0.007	
1.750	-0.223	0.007	
1.755	0.389	0.004	
1.760	0.158	0.035	
1.765	-0.241	0.065	
1.770	0.235	0.063	
1.775	0.468	0.083	
1.780	-0.169	0.124	
1.785	-0.014	0.126	
1.790	0.552	0.121	
1.795	-0.043	0.144	
1.800	-0.151	0.143	
1.805	0.495	0.123	
1.810	0.247	0.141	
1.815	-0.210	0.160	
1.820	0.239	0.142	
1.825	0.442	0.140	
1.830	-0.165	0.158	
1.835	0.014	0.143	
1.840	0.556	0.129	
1.845	-0.047	0.148	
1.850	-0.171	0.143	
1.855	0.433	0.117	
1.860	0.174	0.122	
1.865	-0.236	0.127	
1.870	0.192	0.101	
1.875	0.410	0.096	
1.880	-0.178	0.114	
1.885	-0.009	0.104	
1.890	0.555	0.096	
1.895	-0.021	0.124	
1.900	-0.127	0.133	
1.905	0.489	0.123	
1.910	0.215	0.144	
1.915	-0.209	0.161	
1.920	0.230	0.141	
1.925	0.389	0.134	
1.930	-0.204	0.143	
1.935	-0.067	0.117	
1.940	0.441	0.088	
1.945	-0.119	0.089	
1.950	-0.233	0.072	
1.955	0.320	0.038	
1.960	0.085	0.037	
1.965	-0.273	0.040	
1.970	0.116	0.018	
1.975	0.323	0.017	
1.980	-0.232	0.038	
1.985	-0.075	0.031	
1.990	0.410	0.023	
1.995	-0.140	0.043	
2.000	-0.239	0.040	
2.005	0.380	0.020	
2.010	0.232	0.041	
2.015	-0.127	0.077	
2.020	0.453	0.100	
2.025	0.581	0.156	
2.030	-0.140	0.223	
2.035	-0.035	0.226	
2.040	0.472	0.199	
2.045	-0.104	0.186	
2.050	-0.220	0.147	
2.055	0.364	0.093	
2.060	0.126	0.078	
2.065	-0.238	0.074	
2.070	0.216	0.052	
2.075	0.408	0.060	
2.080	-0.189	0.091	
2.085	-0.035	0.090	
2.090	0.535	0.085	
2.095	-0.046	0.113	
2.100	-0.165	0.118	
2.105	0.454	0.103	
2.110	0.223	0.121	
2.115	-0.197	0.140	
2.120	0.273	0.128	
2.125	0.472	0.137	
2.130	-0.154	0.165	
2.135	0.004	0.156	
2.140	0.561	0.142	
2.145	-0.011	0.160	
2.150	-0.136	0.158	
2.155	0.524	0.139	
2.160	0.256	0.158	
2.165	-0.188	0.178	
2.170	0.320	0.163	
2.175	0.534	0.172	
2.180	-0.120	0.203	
2.185	0.020	0.195	
2.190	0.569	0.178	
2.195	-0.029	0.188	
2.200	-0.159	0.175	
2.205	0.441	0.141	
2.210	0.168	0.139	
2.215	-0.239	0.137	
2.220	0.200	0.106	
2.225	0.372	0.095	
2.230	-0.209	0.107	
2.235	-0.076	0.087	
2.240	0.444	0.065	
2.245	-0.110	0.074	
2.250	-0.217	0.066	
2.255	0.354	0.041	
2.260	0.120	0.049	
2.265	-0.249	0.060	
2.270	0.213	0.047	
2.275	0.424	0.059	
2.280	-0.174	0.096	
2.285	-0.037	0.098	
2.290	0.491	0.092	
2.295	-0.081	0.112	
2.300	-0.197	0.107	
2.305	0.360	0.080	
2.310	0.096	0.080	
2.315	-0.276	0.078	
2.320	0.139	0.048	
2.325	0.335	0.040	
2.330	-0.236	0.055	
2.335	-0.104	0.041	
2.340	0.367	0.023	
2.345	-0.163	0.032	
2.350	-0.273	0.019	
2.355	0.238	-0.012	
2.360	0.009	-0.016	
2.365	-0.317	-0.017	
2.370	0.053	-0.041	
2.375	0.244	-0.044	
2.380	-0.241	-0.023	
2.385	-0.058	-0.022	
2.390	0.567	-0.008	
2.395	0.075	0.053	
2.400	-0.060	0.104	
2.405	0.556	0.133	
2.410	0.190	0.181	
2.415	-0.241	0.203	
2.420	0.140	0.169	
2.425	0.256	0.135	
2.430	-0.264	0.111	
2.435	-0.105	0.062	
2.440	0.395	0.022	
2.445	-0.130	0.024	
2.450	-0.224	0.017	
2.455	0.344	-0.001	
2.460	0.091	0.016	
2.465	-0.274	0.033	
2.470	0.166	0.022	
2.475	0.372	0.032	
2.480	-0.204	0.064	
2.485	-0.035	0.064	
2.490	0.486	0.062	
2.495	-0.093	0.089	
2.500	-0.191	0.091	
2.505	0.404	0.071	
2.510	0.116	0.083	
2.515	-0.259	0.090	
2.520	0.178	0.067	
2.525	0.412	0.067	
2.530	-0.195	0.091	
2.535	-0.043	0.086	
2.540	0.463	0.076	
2.545	-0.082	0.094	
2.550	-0.177	0.091	
2.555	0.428	0.072	
2.560	0.157	0.088	
2.565	-0.235	0.103	
2.570	0.226	0.088	
2.575	0.393	0.092	
2.580	-0.215	0.114	
2.585	-0.064	0.099	
2.590	0.479	0.080	
2.595	-0.114	0.091	
2.600	-0.220	0.082	
2.605	0.358	0.053	
2.610	0.075	0.055	
2.615	-0.294	0.056	
2.620	0.116	0.028	
2.625	0.331	0.021	
2.630	-0.238	0.039	
2.635	-0.090	0.029	
2.640	0.447	0.021	
2.645	-0.095	0.045	
2.650	-0.185	0.052	
2.655	0.407	0.044	
2.660	0.123	0.066	
2.665	-0.264	0.083	
2.670	0.163	0.065	
2.675	0.358	0.063	
2.680	-0.224	0.081	
2.685	-0.104	0.066	
2.690	0.408	0.045	
2.695	-0.130	0.054	
2.700	-0.247	0.043	
2.705	0.280	0.014	
2.710	0.018	0.013	
2.715	-0.322	0.010	
2.720	0.055	-0.020	
2.725	0.253	-0.029	
2.730	-0.276	-0.015	
2.735	-0.136	-0.025	
2.740	0.334	-0.036	
2.745	-0.169	-0.017	
2.750	-0.271	-0.018	
2.755	0.264	-0.036	
2.760	0.072	-0.023	
2.765	-0.244	-0.005	
2.770	0.323	0.001	
2.775	0.648	0.052	
2.780	-0.075	0.139	
2.785	0.067	0.182	
2.790	0.565	0.198	
2.795	-0.087	0.221	
2.800	-0.221	0.199	
2.805	0.335	0.143	
2.810	0.070	0.113	
2.815	-0.282	0.086	
2.820	0.128	0.040	
2.825	0.312	0.023	
2.830	-0.246	0.034	
2.835	-0.095	0.021	
2.840	0.424	0.010	
2.845	-0.124	0.031	
2.850	-0.239	0.034	
2.855	0.352	0.017	
2.860	0.122	0.033	
2.865	-0.262	0.050	
2.870	0.177	0.038	
2.875	0.370	0.047	
2.880	-0.218	0.075	
2.885	-0.069	0.069	
2.890	0.480	0.059	
2.895	-0.085	0.080	
2.900	-0.194	0.081	
2.905	0.389	0.063	
2.910	0.113	0.074	
2.915	-0.252	0.083	
2.920	0.207	0.064	
2.925	0.404	0.068	
2.930	-0.191	0.096	
2.935	-0.023	0.092	
2.940	0.543	0.087	
2.945	-0.052	0.115	
2.950	-0.180	0.120	
2.955	0.421	0.100	
2.960	0.146	0.109	
2.965	-0.264	0.115	
2.970	0.174	0.086	
2.975	0.351	0.076	
2.980	-0.244	0.087	
2.985	-0.110	0.064	
2.990	0.387	0.038	
2.995	-0.128	0.043	
3.000	-0.232	0.032	
3.005	0.344	0.010	
3.010	0.084	0.022	
3.015	-0.276	0.035	
3.020	0.158	0.020	
3.025	0.367	0.028	
3.030	-0.229	0.058	
3.035	-0.090	0.053	
3.040	0.442	0.043	
3.045	-0.114	0.061	
3.050	-0.235	0.058	
3.055	0.315	0.033	
3.060	0.027	0.034	
3.065	-0.317	0.031	
3.070	0.047	-0.002	
3.075	0.247	-0.017	
3.080	-0.290	-0.009	
3.085	-0.149	-0.026	
3.090	0.308	-0.043	
3.095	-0.182	-0.030	
3.100	-0.285	-0.034	
3.105	0.226	-0.054	
3.110	-0.003	-0.046	
3.115	-0.320	-0.038	
3.120	0.032	-0.056	
3.125	0.215	-0.056	
3.130	-0.306	-0.039	
3.135	-0.134	-0.047	
3.140	0.451	-0.049	
3.145	-0.031	-0.006	
3.150	-0.127	0.028	
3.155	0.501	0.050	
3.160	0.180	0.100	
3.165	-0.265	0.134	
3.170	0.091	0.114	
3.175	0.172	0.087	
3.180	-0.328	0.063	
3.185	-0.174	0.009	
3.190	0.296	-0.037	
3.195	-0.185	-0.042	
3.200	-0.281	-0.053	
3.205	0.236	-0.072	
3.210	0.000	-0.059	
3.215	-0.326	-0.046	
3.220	0.038	-0.060	
3.225	0.248	-0.055	
3.230	-0.264	-0.031	
3.235	-0.116	-0.031	
3.240	0.393	-0.030	
3.245	-0.133	0.001	
3.250	-0.247	0.010	
3.255	0.335	-0.000	
3.260	0.117	0.019	
3.265	-0.270	0.039	
3.270	0.169	0.030	
3.275	0.355	0.040	
3.280	-0.226	0.067	
3.285	-0.067	0.061	
3.290	0.459	0.051	
3.295	-0.095	0.072	
3.300	-0.210	0.071	
3.305	0.392	0.052	
3.310	0.137	0.066	
3.315	-0.270	0.079	
3.320	0.140	0.059	
3.325	0.361	0.055	
3.330	-0.218	0.073	
3.335	-0.079	0.061	
3.340	0.448	0.047	
3.345	-0.102	0.065	
3.350	-0.239	0.062	
3.355	0.329	0.037	
3.360	0.105	0.042	
3.365	-0.255	0.050	
3.370	0.171	0.034	
3.375	0.361	0.041	
3.380	-0.210	0.068	
3.385	-0.049	0.064	
3.390	0.503	0.059	
3.395	-0.078	0.086	
3.400	-0.182	0.091	
3.405	0.412	0.076	
3.410	0.163	0.091	
3.415	-0.239	0.105	
3.420	0.200	0.087	
3.425	0.392	0.088	
3.430	-0.226	0.107	
3.435	-0.105	0.089	
3.440	0.410	0.062	
3.445	-0.127	0.065	
3.450	-0.258	0.050	
3.455	0.253	0.015	
3.460	0.023	0.008	
3.465	-0.310	0.002	
3.470	0.059	-0.026	
3.475	0.238	-0.033	
3.480	-0.281	-0.018	
3.485	-0.134	-0.029	
3.490	0.338	-0.038	
3.495	-0.165	-0.019	
3.500	-0.281	-0.018	
3.505	0.236	-0.037	
3.510	0.049	-0.028	
3.515	-0.244	-0.015	
3.520	0.296	-0.012	
3.525	0.509	0.031	
3.530	-0.175	0.099	
3.535	-0.081	0.118	
3.540	0.357	0.106	
3.545	-0.177	0.102	
3.550	-0.303	0.067	
3.555	0.168	0.009	
3.560	-0.044	-0.022	
3.565	-0.357	-0.046	
3.570	0.003	-0.084	
3.575	0.232	-0.093	
3.580	-0.277	-0.071	
3.585	-0.162	-0.070	
3.590	0.311	-0.070	
3.595	-0.165	-0.043	
3.600	-0.282	-0.036	
3.605	0.259	-0.048	
3.610	0.044	-0.031	
3.615	-0.296	-0.015	
3.620	0.091	-0.026	
3.625	0.325	-0.016	
3.630	-0.246	0.014	
3.635	-0.111	0.014	
3.640	0.402	0.008	
3.645	-0.114	0.030	
3.650	-0.233	0.033	
3.655	0.311	0.016	
3.660	0.107	0.027	
3.665	-0.258	0.040	
3.670	0.146	0.027	
3.675	0.363	0.034	
3.680	-0.201	0.062	
3.685	-0.058	0.060	
3.690	0.483	0.055	
3.695	-0.087	0.081	
3.700	-0.203	0.083	
3.705	0.373	0.064	
3.710	0.136	0.074	
3.715	-0.271	0.082	
3.720	0.105	0.057	
3.725	0.325	0.047	
3.730	-0.232	0.057	
3.735	-0.114	0.040	
3.740	0.373	0.020	
3.745	-0.130	0.030	
3.750	-0.252	0.023	
3.755	0.287	-0.001	
3.760	0.021	0.003	
3.765	-0.328	0.005	
3.770	0.023	-0.023	
3.775	0.259	-0.034	
3.780	-0.255	-0.020	
3.785	-0.122	-0.026	
3.790	0.343	-0.032	
3.795	-0.153	-0.010	
3.800	-0.258	-0.007	
3.805	0.268	-0.023	
3.810	0.041	-0.012	
3.815	-0.314	-0.002	
3.820	0.003	-0.024	
3.825	0.206	-0.035	
3.830	-0.281	-0.028	
3.835	-0.146	-0.042	
3.840	0.308	-0.054	
3.845	-0.159	-0.035	
3.850	-0.274	-0.033	
3.855	0.250	-0.047	
3.860	0.043	-0.032	
3.865	-0.310	-0.018	
3.870	0.046	-0.032	
3.875	0.261	-0.031	
3.880	-0.249	-0.010	
3.885	-0.084	-0.013	
3.890	0.503	-0.008	
3.895	0.003	0.039	
3.900	-0.149	0.071	
3.905	0.381	0.078	
3.910	0.073	0.098	
3.915	-0.316	0.100	
3.920	0.012	0.057	
3.925	0.213	0.022	
3.930	-0.273	0.008	
3.935	-0.140	-0.022	
3.940	0.357	-0.042	
3.945	-0.145	-0.024	
3.950	-0.258	-0.020	
3.955	0.264	-0.032	
3.960	0.053	-0.018	
3.965	-0.311	-0.004	
3.970	0.053	-0.021	
3.975	0.305	-0.020	
3.980	-0.239	0.003	
3.985	-0.124	0.000	
3.990	0.370	-0.006	
3.995	-0.127	0.014	
4.000	-0.246	0.016	
4.005	0.282	-0.002	
4.010	0.067	0.008	
4.015	-0.290	0.017	
4.020	0.084	-0.002	
4.025	0.331	-0.001	
4.030	-0.220	0.024	
4.035	-0.099	0.022	
4.040	0.416	0.017	
4.045	-0.107	0.040	
4.050	-0.230	0.043	
4.055	0.322	0.025	
4.060	0.120	0.036	
4.065	-0.262	0.049	
4.070	0.137	0.034	
4.075	0.367	0.038	
4.080	-0.218	0.063	
4.085	-0.099	0.056	
4.090	0.402	0.041	
4.095	-0.124	0.054	
4.100	-0.253	0.045	
4.105	0.253	0.015	
4.110	0.049	0.012	
4.115	-0.293	0.010	
4.120	0.078	-0.013	
4.125	0.331	-0.014	
4.130	-0.230	0.012	
4.135	-0.101	0.012	
4.140	0.437	0.010	
4.145	-0.075	0.039	
4.150	-0.200	0.051	
4.155	0.375	0.042	
4.160	0.168	0.063	
4.165	-0.239	0.084	
4.170	0.181	0.072	
4.175	0.408	0.078	
4.180	-0.203	0.103	
4.185	-0.095	0.092	
4.190	0.436	0.072	
4.195	-0.108	0.079	
4.200	-0.239	0.068	
4.205	0.303	0.036	
4.210	0.073	0.034	
4.215	-0.296	0.034	
4.220	0.067	0.007	
4.225	0.305	-0.001	
4.230	-0.238	0.015	
4.235	-0.120	0.007	
4.240	0.367	-0.003	
4.245	-0.143	0.014	
4.250	-0.264	0.011	
4.255	0.300	-0.009	
4.260	0.160	0.005	
4.265	-0.203	0.031	
4.270	0.399	0.045	
4.275	0.648	0.101	
4.280	-0.089	0.184	
4.285	0.000	0.212	
4.290	0.482	0.205	
4.295	-0.120	0.203	
4.300	-0.255	0.164	
4.305	0.288	0.098	
4.310	0.105	0.068	
4.315	-0.279	0.050	
4.320	0.111	0.017	
4.325	0.334	0.010	
4.330	-0.230	0.030	
4.335	-0.096	0.024	
4.340	0.457	0.018	
4.345	-0.084	0.046	
4.350	-0.207	0.055	
4.355	0.412	0.045	
4.360	0.195	0.069	
4.365	-0.238	0.095	
4.370	0.195	0.085	
4.375	0.428	0.092	
4.380	-0.188	0.118	
4.385	-0.063	0.109	
4.390	0.511	0.093	
4.395	-0.052	0.110	
4.400	-0.198	0.108	
4.405	0.395	0.084	
4.410	0.190	0.093	
4.415	-0.236	0.105	
4.420	0.190	0.088	
4.425	0.445	0.090	
4.430	-0.172	0.116	
4.435	-0.040	0.111	
4.440	0.547	0.101	
4.445	-0.053	0.124	
4.450	-0.198	0.123	
4.455	0.405	0.098	
4.460	0.187	0.105	
4.465	-0.261	0.113	
4.470	0.140	0.087	
4.475	0.393	0.077	
4.480	-0.204	0.091	
4.485	-0.082	0.077	
4.490	0.471	0.060	
4.495	-0.081	0.077	
4.500	-0.215	0.075	
4.505	0.389	0.055	
4.510	0.166	0.068	
4.515	-0.253	0.084	
4.520	0.201	0.070	
4.525	0.450	0.077	
4.530	-0.183	0.109	
4.535	-0.053	0.106	
4.540	0.518	0.096	
4.545	-0.076	0.115	
4.550	-0.232	0.109	
4.555	0.337	0.077	
4.560	0.119	0.073	
4.565	-0.300	0.070	
4.570	0.070	0.037	
4.575	0.311	0.020	
4.580	-0.262	0.028	
4.585	-0.143	0.011	
4.590	0.392	-0.007	
4.595	-0.117	0.009	
4.600	-0.264	0.011	
4.605	0.297	-0.006	
4.610	0.096	0.006	
4.615	-0.308	0.019	
4.620	0.065	0.001	
4.625	0.311	-0.002	
4.630	-0.274	0.016	
4.635	-0.153	0.004	
4.640	0.402	-0.011	
4.645	-0.087	0.010	
4.650	-0.177	0.021	
4.655	0.648	0.032	
4.660	0.465	0.104	
4.665	-0.151	0.187	
4.670	0.261	0.212	
4.675	0.457	0.224	
4.680	-0.236	0.231	
4.685	-0.142	0.185	
4.690	0.380	0.122	
4.695	-0.140	0.090	
4.700	-0.277	0.050	
4.705	0.279	0.001	
4.710	0.084	-0.006	
4.715	-0.308	-0.002	
4.720	0.094	-0.020	
4.725	0.378	-0.013	
4.730	-0.221	0.022	
4.735	-0.098	0.027	
4.740	0.480	0.028	
4.745	-0.075	0.060	
4.750	-0.223	0.069	
4.755	0.392	0.055	
4.760	0.184	0.072	
4.765	-0.252	0.091	
4.770	0.207	0.078	
4.775	0.492	0.088	
4.780	-0.175	0.123	
4.785	-0.090	0.120	
4.790	0.491	0.103	
4.795	-0.089	0.112	
4.800	-0.247	0.099	
4.805	0.340	0.063	
4.810	0.148	0.061	
4.815	-0.279	0.065	
4.820	0.123	0.042	
4.825	0.410	0.040	
4.830	-0.218	0.065	
4.835	-0.096	0.060	
4.840	0.442	0.048	
4.845	-0.102	0.065	
4.850	-0.252	0.060	
4.855	0.328	0.034	
4.860	0.117	0.039	
4.865	-0.303	0.046	
4.870	0.073	0.022	
4.875	0.360	0.015	
4.880	-0.241	0.035	
4.885	-0.114	0.027	
4.890	0.495	0.019	
4.895	-0.061	0.050	
4.900	-0.218	0.062	
4.905	0.402	0.053	
4.910	0.184	0.074	
4.915	-0.273	0.094	
4.920	0.146	0.076	
4.925	0.437	0.075	
4.930	-0.209	0.098	
4.935	-0.087	0.088	
4.940	0.479	0.071	
4.945	-0.098	0.085	
4.950	-0.249	0.078	
4.955	0.320	0.048	
4.960	0.126	0.048	
4.965	-0.296	0.052	
4.970	0.087	0.027	
4.975	0.340	0.019	
4.980	-0.259	0.036	
4.985	-0.154	0.022	
4.990	0.370	0.002	
4.995	-0.145	0.012	
5.000	-0.291	0.005	
5.005	0.242	-0.022	
5.010	0.020	-0.021	
5.015	-0.364	-0.021	
5.020	-0.023	-0.050	
5.025	0.274	-0.062	
5.030	-0.236	-0.043	
5.035	-0.040	-0.037	
5.040	0.709	-0.009	
5.045	0.122	0.076	
5.050	-0.137	0.141	
5.055	0.460	0.161	
5.060	0.161	0.185	
5.065	-0.316	0.184	
5.070	0.040	0.130	
5.075	0.351	0.085	
5.080	-0.258	0.069	
5.085	-0.146	0.034	
5.090	0.389	0.003	
5.095	-0.140	0.010	
5.100	-0.276	0.004	
5.105	0.291	-0.018	
5.110	0.079	-0.008	
5.115	-0.314	0.005	
5.120	0.084	-0.011	
5.125	0.352	-0.008	
5.130	-0.232	0.021	
5.135	-0.098	0.022	
5.140	0.509	0.022	
5.145	-0.063	0.057	
5.150	-0.213	0.072	
5.155	0.404	0.062	
5.160	0.192	0.082	
5.165	-0.267	0.101	
5.170	0.157	0.083	
5.175	0.468	0.082	
5.180	-0.183	0.109	
5.185	-0.063	0.104	
5.190	0.544	0.093	
5.195	-0.043	0.116	
5.200	-0.209	0.117	
5.205	0.430	0.095	
5.210	0.216	0.106	
5.215	-0.252	0.121	
5.220	0.158	0.099	
5.225	0.459	0.095	
5.230	-0.198	0.116	
5.235	-0.099	0.103	
5.240	0.483	0.081	
5.245	-0.066	0.093	
5.250	-0.241	0.087	
5.255	0.349	0.058	
5.260	0.139	0.061	
5.265	-0.294	0.067	
5.270	0.102	0.041	
5.275	0.419	0.036	
5.280	-0.192	0.061	
5.285	-0.089	0.060	
5.290	0.508	0.055	
5.295	-0.058	0.082	
5.300	-0.209	0.089	
5.305	0.422	0.073	
5.310	0.213	0.091	
5.315	-0.258	0.111	
5.320	0.120	0.091	
5.325	0.418	0.083	
5.330	-0.218	0.098	
5.335	-0.114	0.081	
5.340	0.441	0.058	
5.345	-0.119	0.065	
5.350	-0.294	0.053	
5.355	0.253	0.016	
5.360	0.075	0.008	
5.365	-0.335	0.006	
5.370	-0.009	-0.024	
5.375	0.287	-0.038	
5.380	-0.273	-0.024	
5.385	-0.185	-0.033	
5.390	0.311	-0.047	
5.395	-0.156	-0.032	
5.400	-0.314	-0.033	
5.405	0.189	-0.055	
5.410	0.085	-0.049	
5.415	-0.267	-0.033	
5.420	0.248	-0.028	
5.425	0.596	0.018	
5.430	-0.162	0.096	
5.435	-0.096	0.125	
5.440	0.457	0.121	
5.445	-0.099	0.130	
5.450	-0.279	0.109	
5.455	0.273	0.061	
5.460	0.142	0.045	
5.465	-0.279	0.042	
5.470	0.102	0.018	
5.475	0.389	0.017	
5.480	-0.212	0.045	
5.485	-0.136	0.042	
5.490	0.419	0.030	
5.495	-0.101	0.046	
5.500	-0.250	0.044	
5.505	0.320	0.022	
5.510	0.168	0.033	
5.515	-0.262	0.050	
5.520	0.145	0.040	
5.525	0.413	0.048	
5.530	-0.209	0.078	
5.535	-0.098	0.074	
5.540	0.514	0.063	
5.545	-0.041	0.087	
5.550	-0.210	0.093	
5.555	0.430	0.077	
5.560	0.247	0.097	
5.565	-0.244	0.120	
5.570	0.158	0.105	
5.575	0.463	0.103	
5.580	-0.174	0.125	
5.585	-0.073	0.115	
5.590	0.512	0.098	
5.595	-0.041	0.113	
5.600	-0.210	0.110	
5.605	0.370	0.084	
5.610	0.209	0.090	
5.615	-0.259	0.100	
5.620	0.131	0.079	
5.625	0.431	0.074	
5.630	-0.204	0.094	
5.635	-0.137	0.081	
5.640	0.419	0.057	
5.645	-0.095	0.063	
5.650	-0.259	0.053	
5.655	0.276	0.022	
5.660	0.146	0.024	
5.665	-0.291	0.033	
5.670	0.038	0.013	
5.675	0.346	0.007	
5.680	-0.233	0.025	
5.685	-0.143	0.018	
5.690	0.410	0.006	
5.695	-0.108	0.025	
5.700	-0.287	0.025	
5.705	0.230	0.000	
5.710	0.072	-0.001	
5.715	-0.335	0.000	
5.720	-0.020	-0.028	
5.725	0.287	-0.040	
5.730	-0.270	-0.026	
5.735	-0.186	-0.035	
5.740	0.332	-0.047	
5.745	-0.140	-0.028	
5.750	-0.320	-0.027	
5.755	0.169	-0.049	
5.760	0.029	-0.049	
5.765	-0.351	-0.045	
5.770	-0.049	-0.069	
5.775	0.229	-0.078	
5.780	-0.296	-0.062	
5.785	-0.194	-0.069	
5.790	0.396	-0.073	
5.795	-0.075	-0.037	
5.800	-0.200	-0.011	
5.805	0.448	0.003	
5.810	0.232	0.052	
5.815	-0.290	0.095	
5.820	0.011	0.083	
5.825	0.270	0.062	
5.830	-0.282	0.053	
5.835	-0.197	0.016	
5.840	0.319	-0.022	
5.845	-0.149	-0.023	
5.850	-0.317	-0.033	
5.855	0.218	-0.058	
5.860	0.084	-0.050	
5.865	-0.313	-0.034	
5.870	0.021	-0.043	
5.875	0.352	-0.036	
5.880	-0.223	-0.003	
5.885	-0.134	0.003	
5.890	0.439	0.004	
5.895	-0.063	0.034	
5.900	-0.242	0.047	
5.905	0.348	0.035	
5.910	0.218	0.053	
5.915	-0.253	0.077	
5.920	0.110	0.066	
5.925	0.431	0.067	
5.930	-0.195	0.091	
5.935	-0.119	0.082	
5.940	0.460	0.064	
5.945	-0.044	0.078	
5.950	-0.215	0.078	
5.955	0.390	0.060	
5.960	0.255	0.077	
5.965	-0.262	0.101	
5.970	0.084	0.086	
5.975	0.393	0.076	
5.980	-0.220	0.087	
5.985	-0.153	0.067	
5.990	0.355	0.038	
5.995	-0.125	0.036	
6.000	-0.297	0.019	
6.005	0.218	-0.015	
6.010	0.094	-0.019	
6.015	-0.323	-0.013	
6.020	-0.009	-0.034	
6.025	0.314	-0.039	
6.030	-0.244	-0.017	
6.035	-0.154	-0.018	
6.040	0.410	-0.022	
6.045	-0.073	0.007	
6.050	-0.256	0.021	
6.055	0.322	0.012	
6.060	0.218	0.033	
6.065	-0.249	0.061	
6.070	0.093	0.054	
6.075	0.433	0.059	
6.080	-0.194	0.085	
6.085	-0.133	0.078	
6.090	0.430	0.059	
6.095	-0.076	0.069	
6.100	-0.265	0.062	
6.105	0.256	0.030	
6.110	0.131	0.027	
6.115	-0.308	0.030	
6.120	0.008	0.004	
6.125	0.344	-0.007	
6.130	-0.221	0.010	
6.135	-0.145	0.006	
6.140	0.387	-0.003	
6.145	-0.092	0.018	
6.150	-0.270	0.022	
6.155	0.256	0.003	
6.160	0.146	0.010	
6.165	-0.273	0.025	
6.170	0.053	0.012	
6.175	0.421	0.015	
6.180	-0.140	0.048	
6.185	0.014	0.063	
6.190	0.643	0.083	
6.195	0.037	0.139	
6.200	-0.223	0.164	
6.205	0.280	0.140	
6.210	0.131	0.124	
6.215	-0.291	0.105	
6.220	0.027	0.057	
6.225	0.346	0.027	
6.230	-0.227	0.031	
6.235	-0.156	0.014	
6.240	0.372	-0.004	
6.245	-0.098	0.010	
6.250	-0.288	0.010	
6.255	0.248	-0.011	
6.260	0.168	-0.002	
6.265	-0.270	0.017	
6.270	0.079	0.010	
6.275	0.407	0.018	
6.280	-0.200	0.051	
6.285	-0.119	0.052	
6.290	0.497	0.046	
6.295	-0.005	0.075	
6.300	-0.213	0.088	
6.305	0.381	0.076	
6.310	0.285	0.094	
6.315	-0.206	0.120	
6.320	0.165	0.113	
6.325	0.512	0.117	
6.330	-0.136	0.147	
6.335	-0.081	0.141	
6.340	0.532	0.124	
6.345	-0.003	0.137	
6.350	-0.206	0.133	
6.355	0.395	0.106	
6.360	0.285	0.113	
6.365	-0.213	0.130	
6.370	0.136	0.114	
6.375	0.442	0.109	
6.380	-0.182	0.124	
6.385	-0.130	0.107	
6.390	0.430	0.078	
6.395	-0.052	0.081	
6.400	-0.250	0.071	
6.405	0.312	0.042	
6.410	0.226	0.047	
6.415	-0.252	0.065	
6.420	0.102	0.054	
6.425	0.451	0.057	
6.430	-0.162	0.087	
6.435	-0.107	0.086	
6.440	0.482	0.075	
6.445	-0.024	0.094	
6.450	-0.230	0.096	
6.455	0.344	0.072	
6.460	0.247	0.080	
6.465	-0.256	0.096	
6.470	0.073	0.077	
6.475	0.436	0.069	
6.480	-0.188	0.087	
6.485	-0.143	0.076	
6.490	0.427	0.054	
6.495	-0.082	0.063	
6.500	-0.285	0.054	
6.505	0.255	0.022	
6.510	0.149	0.019	
6.515	-0.296	0.026	
6.520	0.018	0.005	
6.525	0.361	-0.002	
6.530	-0.220	0.020	
6.535	-0.169	0.015	
6.540	0.355	0.001	
6.545	-0.116	0.013	
6.550	-0.305	0.008	
6.555	0.212	-0.019	
6.560	0.195	-0.015	
6.565	-0.215	0.008	
6.570	0.299	0.021	
6.575	0.684	0.072	
6.580	-0.099	0.157	
6.585	-0.098	0.187	
6.590	0.433	0.174	
6.595	-0.099	0.166	
6.600	-0.302	0.129	
6.605	0.230	0.065	
6.610	0.120	0.034	
6.615	-0.316	0.020	
6.620	-0.035	-0.016	
6.625	0.314	-0.034	
6.630	-0.242	-0.020	
6.635	-0.195	-0.027	
6.640	0.364	-0.037	
6.645	-0.093	-0.015	
6.650	-0.267	-0.006	
6.655	0.297	-0.015	
6.660	0.207	0.008	
6.665	-0.259	0.038	
6.670	0.107	0.037	
6.675	0.463	0.049	
6.680	-0.165	0.086	
6.685	-0.096	0.090	
6.690	0.515	0.082	
6.695	-0.017	0.106	
6.700	-0.233	0.109	
6.705	0.331	0.084	
6.710	0.235	0.086	
6.715	-0.256	0.097	
6.720	0.076	0.075	
6.725	0.466	0.067	
6.730	-0.166	0.089	
6.735	-0.117	0.085	
6.740	0.477	0.070	
6.745	-0.029	0.088	
6.750	-0.233	0.088	
6.755	0.340	0.065	
6.760	0.239	0.074	
6.765	-0.267	0.089	
6.770	0.062	0.070	
6.775	0.450	0.062	
6.780	-0.188	0.082	
6.785	-0.145	0.074	
6.790	0.450	0.055	
6.795	-0.053	0.068	
6.800	-0.277	0.064	
6.805	0.273	0.036	
6.810	0.197	0.036	
6.815	-0.274	0.048	
6.820	0.052	0.031	
6.825	0.437	0.029	
6.830	-0.192	0.057	
6.835	-0.137	0.056	
6.840	0.459	0.045	
6.845	-0.043	0.065	
6.850	-0.258	0.069	
6.855	0.314	0.046	
6.860	0.210	0.053	
6.865	-0.273	0.068	
6.870	0.044	0.050	
6.875	0.416	0.042	
6.880	-0.201	0.062	
6.885	-0.157	0.053	
6.890	0.389	0.033	
6.895	-0.072	0.043	
6.900	-0.279	0.038	
6.905	0.255	0.011	
6.910	0.168	0.014	
6.915	-0.296	0.027	
6.920	0.000	0.008	
6.925	0.369	0.001	
6.930	-0.226	0.021	
6.935	-0.172	0.015	
6.940	0.412	0.002	
6.945	-0.011	0.025	
6.950	-0.188	0.041	
6.955	0.567	0.049	
6.960	0.534	0.113	
6.965	-0.140	0.192	
6.970	0.206	0.217	
6.975	0.501	0.225	
6.980	-0.191	0.234	
6.985	-0.180	0.193	
6.990	0.378	0.129	
6.995	-0.079	0.097	
7.000	-0.294	0.059	
7.005	0.213	0.009	
7.010	0.131	-0.005	
7.015	-0.310	-0.003	
7.020	-0.006	-0.025	
7.025	0.372	-0.028	
7.030	-0.217	-0.001	
7.035	-0.165	0.002	
7.040	0.424	-0.002	
7.045	-0.044	0.026	
7.050	-0.264	0.038	
7.055	0.296	0.024	
7.060	0.229	0.038	
7.065	-0.265	0.061	
7.070	0.061	0.050	
7.075	0.445	0.049	
7.080	-0.177	0.075	
7.085	-0.131	0.072	
7.090	0.486	0.060	
7.095	-0.017	0.081	
7.100	-0.235	0.086	
7.105	0.364	0.067	
7.110	0.294	0.082	
7.115	-0.239	0.107	
7.120	0.099	0.095	
7.125	0.508	0.094	
7.130	-0.149	0.120	
7.135	-0.122	0.115	
7.140	0.460	0.094	
7.145	-0.015	0.103	
7.150	-0.250	0.096	
7.155	0.285	0.065	
7.160	0.232	0.063	
7.165	-0.276	0.072	
7.170	0.018	0.049	
7.175	0.410	0.037	
7.180	-0.186	0.054	
7.185	-0.153	0.047	
7.190	0.451	0.033	
7.195	-0.034	0.053	
7.200	-0.246	0.060	
7.205	0.326	0.043	
7.210	0.274	0.058	
7.215	-0.242	0.084	
7.220	0.105	0.076	
7.225	0.508	0.080	
7.230	-0.145	0.113	
7.235	-0.116	0.112	
7.240	0.465	0.096	
7.245	-0.043	0.105	
7.250	-0.270	0.096	
7.255	0.258	0.058	
7.260	0.175	0.049	
7.265	-0.300	0.049	
7.270	-0.018	0.020	
7.275	0.372	0.003	
7.280	-0.221	0.018	
7.285	-0.180	0.010	
7.290	0.386	-0.005	
7.295	-0.096	0.012	
7.300	-0.314	0.012	
7.305	0.209	-0.014	
7.310	0.154	-0.012	
7.315	-0.313	0.000	
7.320	-0.041	-0.017	
7.325	0.326	-0.026	
7.330	-0.224	-0.007	
7.335	-0.149	-0.010	
7.340	0.567	-0.007	
7.345	0.143	0.048	
7.350	-0.180	0.097	
7.355	0.367	0.110	
7.360	0.261	0.134	
7.365	-0.297	0.148	
7.370	-0.064	0.109	
7.375	0.276	0.063	
7.380	-0.252	0.040	
7.385	-0.223	0.000	
7.390	0.311	-0.037	
7.395	-0.095	-0.035	
7.400	-0.299	-0.035	
7.405	0.168	-0.053	
7.410	0.111	-0.045	
7.415	-0.323	-0.030	
7.420	-0.047	-0.044	
7.425	0.338	-0.046	
7.430	-0.213	-0.020	
7.435	-0.185	-0.016	
7.440	0.376	-0.020	
7.445	-0.060	0.005	
7.450	-0.282	0.015	
7.455	0.209	-0.002	
7.460	0.158	0.004	
7.465	-0.299	0.016	
7.470	-0.012	-0.001	
7.475	0.383	-0.007	
7.480	-0.192	0.017	
7.485	-0.165	0.018	
7.490	0.419	0.011	
7.495	-0.031	0.035	
7.500	-0.265	0.044	
7.505	0.285	0.028	
7.510	0.264	0.041	
7.515	-0.256	0.066	
7.520	0.029	0.055	
7.525	0.428	0.051	
7.530	-0.185	0.071	
7.535	-0.163	0.064	
7.540	0.395	0.043	
7.545	-0.037	0.052	
7.550	-0.271	0.049	
7.555	0.245	0.023	
7.560	0.232	0.027	
7.565	-0.270	0.044	
7.570	-0.002	0.030	
7.575	0.396	0.023	
7.580	-0.201	0.043	
7.585	-0.178	0.036	
7.590	0.393	0.018	
7.595	-0.047	0.032	
7.600	-0.288	0.034	
7.605	0.233	0.010	
7.610	0.230	0.015	
7.615	-0.267	0.035	
7.620	0.026	0.025	
7.625	0.430	0.026	
7.630	-0.201	0.053	
7.635	-0.192	0.049	
7.640	0.366	0.028	
7.645	-0.055	0.034	
7.650	-0.303	0.029	
7.655	0.181	-0.001	
7.660	0.171	-0.005	
7.665	-0.285	0.005	
7.670	-0.040	-0.011	
7.675	0.351	-0.018	
7.680	-0.230	0.002	
7.685	-0.212	-0.003	
7.690	0.346	-0.020	
7.695	-0.076	-0.005	
7.700	-0.308	-0.003	
7.705	0.157	-0.026	
7.710	0.133	-0.026	
7.715	-0.303	-0.016	
7.720	-0.006	-0.030	
7.725	0.488	-0.023	
7.730	-0.082	0.025	
7.735	-0.069	0.056	
7.740	0.532	0.075	
7.745	-0.020	0.116	
7.750	-0.302	0.123	
7.755	0.126	0.081	
7.760	0.114	0.049	
7.765	-0.322	0.025	
7.770	-0.069	-0.019	
7.775	0.335	-0.042	
7.780	-0.213	-0.028	
7.785	-0.201	-0.030	
7.790	0.363	-0.037	
7.795	-0.047	-0.011	
7.800	-0.299	0.002	
7.805	0.218	-0.012	
7.810	0.203	-0.001	
7.815	-0.270	0.021	
7.820	0.015	0.013	
7.825	0.433	0.016	
7.830	-0.157	0.048	
7.835	-0.149	0.053	
7.840	0.462	0.046	
7.845	0.033	0.071	
7.850	-0.207	0.086	
7.855	0.364	0.076	
7.860	0.341	0.097	
7.865	-0.215	0.128	
7.870	0.093	0.120	
7.875	0.550	0.118	
7.880	-0.101	0.145	
7.885	-0.082	0.144	
7.890	0.550	0.130	
7.895	0.084	0.150	
7.900	-0.210	0.156	
7.905	0.373	0.131	
7.910	0.380	0.137	
7.915	-0.206	0.158	
7.920	0.075	0.141	
7.925	0.477	0.126	
7.930	-0.156	0.135	
7.935	-0.148	0.116	
7.940	0.451	0.085	
7.945	0.026	0.090	
7.950	-0.235	0.088	
7.955	0.274	0.063	
7.960	0.265	0.066	
7.965	-0.255	0.081	
7.970	0.032	0.063	
7.975	0.450	0.055	
7.980	-0.171	0.076	
7.985	-0.169	0.069	
7.990	0.419	0.049	
7.995	-0.002	0.061	
8.000	-0.244	0.063	
8.005	0.279	0.043	
8.010	0.293	0.053	
8.015	-0.244	0.077	
8.020	0.006	0.066	
8.025	0.421	0.057	
8.030	-0.180	0.073	
8.035	-0.191	0.061	
8.040	0.351	0.034	
8.045	-0.053	0.036	
8.050	-0.303	0.027	
8.055	0.166	-0.005	
8.060	0.174	-0.010	
8.065	-0.297	-0.001	
8.070	-0.049	-0.018	
8.075	0.354	-0.025	
8.080	-0.218	-0.004	
8.085	-0.224	-0.006	
8.090	0.282	-0.024	
8.095	-0.089	-0.017	
8.100	-0.317	-0.020	
8.105	0.212	-0.042	
8.110	0.331	-0.024	
8.115	-0.162	0.022	
8.120	0.158	0.048	
8.125	0.512	0.083	
8.130	-0.172	0.131	
8.135	-0.206	0.129	
8.140	0.283	0.090	
8.145	-0.107	0.066	
8.150	-0.332	0.030	
8.155	0.128	-0.023	
8.160	0.169	-0.040	
8.165	-0.303	-0.034	
8.170	-0.061	-0.048	
8.175	0.363	-0.049	
8.180	-0.198	-0.018	
8.185	-0.203	-0.011	
8.190	0.352	-0.017	
8.195	-0.031	0.005	
8.200	-0.274	0.015	
8.205	0.235	0.002	
8.210	0.287	0.017	
8.215	-0.244	0.047	
8.220	0.017	0.045	
8.225	0.480	0.048	
8.230	-0.127	0.080	
8.235	-0.149	0.084	
8.240	0.447	0.072	
8.245	0.033	0.088	
8.250	-0.242	0.093	
8.255	0.302	0.071	
8.260	0.351	0.080	
8.265	-0.215	0.106	
8.270	0.040	0.097	
8.275	0.514	0.093	
8.280	-0.105	0.118	
8.285	-0.114	0.117	
8.290	0.474	0.101	
8.295	0.041	0.115	
8.300	-0.236	0.116	
8.305	0.297	0.088	
8.310	0.312	0.090	
8.315	-0.239	0.105	
8.320	0.012	0.086	
8.325	0.448	0.072	
8.330	-0.145	0.087	
8.335	-0.163	0.078	
8.340	0.430	0.057	
8.345	0.037	0.070	
8.350	-0.265	0.075	
8.355	0.227	0.051	
8.360	0.288	0.052	
8.365	-0.241	0.068	
8.370	0.000	0.055	
8.375	0.463	0.049	
8.380	-0.133	0.073	
8.385	-0.156	0.074	
8.390	0.454	0.061	
8.395	0.018	0.079	
8.400	-0.268	0.083	
8.405	0.218	0.056	
8.410	0.247	0.052	
8.415	-0.261	0.061	
8.420	-0.029	0.040	
8.425	0.380	0.025	
8.430	-0.191	0.038	
8.435	-0.218	0.027	
8.440	0.331	0.003	
8.445	-0.040	0.010	
8.450	-0.293	0.009	
8.455	0.151	-0.015	
8.460	0.174	-0.015	
8.465	-0.294	-0.003	
8.470	-0.076	-0.020	
8.475	0.337	-0.029	
8.480	-0.206	-0.010	
8.485	-0.215	-0.012	
8.490	0.431	-0.021	
8.495	0.133	0.015	
8.500	-0.143	0.055	
8.505	0.442	0.078	
8.510	0.390	0.127	
8.515	-0.239	0.173	
8.520	-0.041	0.158	
8.525	0.363	0.123	
8.530	-0.200	0.106	
8.535	-0.229	0.065	
8.540	0.300	0.017	
8.545	-0.066	0.004	
8.550	-0.328	-0.010	
8.555	0.139	-0.042	
8.560	0.213	-0.043	
8.565	-0.297	-0.023	
8.570	-0.070	-0.029	
8.575	0.376	-0.030	
8.580	-0.175	-0.002	
8.585	-0.197	0.005	
8.590	0.363	-0.002	
8.595	0.004	0.019	
8.600	-0.273	0.031	
8.605	0.229	0.016	
8.610	0.308	0.029	
8.615	-0.224	0.058	
8.620	0.017	0.056	
8.625	0.460	0.057	
8.630	-0.136	0.084	
8.635	-0.151	0.084	
8.640	0.469	0.069	
8.645	0.079	0.090	
8.650	-0.241	0.101	
8.655	0.294	0.083	
8.660	0.325	0.090	
8.665	-0.230	0.109	
8.670	0.018	0.093	
8.675	0.486	0.082	
8.680	-0.151	0.100	
8.685	-0.188	0.090	
8.690	0.387	0.062	
8.695	0.004	0.064	
8.700	-0.271	0.059	
8.705	0.198	0.030	
8.710	0.241	0.027	
8.715	-0.268	0.040	
8.720	-0.043	0.023	
8.725	0.444	0.014	
8.730	-0.159	0.039	
8.735	-0.197	0.041	
8.740	0.390	0.027	
8.745	0.015	0.043	
8.750	-0.262	0.050	
8.755	0.229	0.031	
8.760	0.291	0.039	
8.765	-0.241	0.061	
8.770	-0.012	0.052	
8.775	0.469	0.047	
8.780	-0.154	0.072	
8.785	-0.200	0.069	
8.790	0.389	0.047	
8.795	0.003	0.054	
8.800	-0.296	0.053	
8.805	0.140	0.021	
8.810	0.216	0.011	
8.815	-0.293	0.017	
8.820	-0.087	-0.004	
8.825	0.335	-0.020	
8.830	-0.207	-0.007	
8.835	-0.253	-0.014	
8.840	0.294	-0.035	
8.845	-0.047	-0.025	
8.850	-0.332	-0.022	
8.855	0.101	-0.044	
8.860	0.177	-0.045	
8.865	-0.306	-0.031	
8.870	-0.084	-0.042	
8.875	0.427	-0.042	
8.880	-0.099	-0.003	
8.885	-0.066	0.024	
8.890	0.665	0.053	
8.895	0.258	0.128	
8.900	-0.186	0.187	
8.905	0.245	0.187	
8.910	0.239	0.178	
8.915	-0.297	0.160	
8.920	-0.098	0.101	
8.925	0.331	0.046	
8.930	-0.204	0.027	
8.935	-0.246	-0.002	
8.940	0.293	-0.035	
8.945	-0.034	-0.030	
8.950	-0.306	-0.026	
8.955	0.148	-0.042	
8.960	0.265	-0.031	
8.965	-0.258	0.000	
8.970	-0.044	0.002	
8.975	0.419	0.005	
8.980	-0.163	0.035	
8.985	-0.218	0.038	
8.990	0.349	0.020	
8.995	0.018	0.031	
9.000	-0.276	0.036	
9.005	0.187	0.015	
9.010	0.285	0.020	
9.015	-0.247	0.042	
9.020	-0.031	0.034	
9.025	0.463	0.031	
9.030	-0.125	0.060	
9.035	-0.177	0.064	
9.040	0.413	0.052	
9.045	0.072	0.069	
9.050	-0.247	0.079	
9.055	0.282	0.063	
9.060	0.392	0.076	
9.065	-0.213	0.108	
9.070	-0.002	0.102	
9.075	0.503	0.093	
9.080	-0.111	0.113	
9.085	-0.177	0.107	
9.090	0.421	0.082	
9.095	0.058	0.088	
9.100	-0.264	0.087	
9.105	0.230	0.060	
9.110	0.354	0.061	
9.115	-0.213	0.083	
9.120	-0.009	0.075	
9.125	0.482	0.069	
9.130	-0.113	0.092	
9.135	-0.160	0.091	
9.140	0.434	0.073	
9.145	0.085	0.088	
9.150	-0.249	0.095	
9.155	0.256	0.074	
9.160	0.366	0.079	
9.165	-0.215	0.103	
9.170	-0.020	0.091	
9.175	0.454	0.078	
9.180	-0.146	0.091	
9.185	-0.209	0.079	
9.190	0.351	0.048	
9.195	0.024	0.048	
9.200	-0.281	0.045	
9.205	0.158	0.017	
9.210	0.250	0.014	
9.215	-0.264	0.028	
9.220	-0.069	0.014	
9.225	0.410	0.004	
9.230	-0.160	0.026	
9.235	-0.224	0.026	
9.240	0.343	0.009	
9.245	-0.015	0.019	
9.250	-0.317	0.021	
9.255	0.091	-0.008	
9.260	0.253	-0.015	
9.265	-0.241	0.000	
9.270	0.043	-0.001	
9.275	0.666	0.023	
9.280	0.008	0.094	
9.285	-0.105	0.138	
9.290	0.450	0.146	
9.295	0.035	0.161	
9.300	-0.322	0.148	
9.305	0.079	0.090	
9.310	0.215	0.047	
9.315	-0.290	0.027	
9.320	-0.108	-0.009	
9.325	0.358	-0.032	
9.330	-0.163	-0.017	
9.335	-0.212	-0.015	
9.340	0.360	-0.021	
9.345	0.008	0.003	
9.350	-0.293	0.018	
9.355	0.175	0.004	
9.360	0.334	0.014	
9.365	-0.227	0.045	
9.370	-0.017	0.045	
9.375	0.508	0.049	
9.380	-0.102	0.083	
9.385	-0.177	0.090	
9.390	0.469	0.078	
9.395	0.131	0.098	
9.400	-0.242	0.113	
9.405	0.245	0.094	
9.410	0.392	0.097	
9.415	-0.195	0.119	
9.420	0.015	0.109	
9.425	0.537	0.101	
9.430	-0.075	0.125	
9.435	-0.153	0.125	
9.440	0.468	0.106	
9.445	0.152	0.120	
9.450	-0.213	0.131	
9.455	0.296	0.113	
9.460	0.393	0.119	
9.465	-0.215	0.140	
9.470	-0.035	0.121	
9.475	0.448	0.097	
9.480	-0.137	0.101	
9.485	-0.215	0.082	
9.490	0.334	0.047	
9.495	0.032	0.043	
9.500	-0.273	0.039	
9.505	0.183	0.015	
9.510	0.340	0.020	
9.515	-0.232	0.048	
9.520	-0.069	0.044	
9.525	0.412	0.036	
9.530	-0.133	0.054	
9.535	-0.195	0.051	
9.540	0.381	0.033	
9.545	0.088	0.049	
9.550	-0.259	0.061	
9.555	0.206	0.046	
9.560	0.370	0.054	
9.565	-0.220	0.081	
9.570	-0.049	0.074	
9.575	0.405	0.061	
9.580	-0.162	0.071	
9.585	-0.244	0.056	
9.590	0.279	0.020	
9.595	-0.021	0.013	
9.600	-0.320	0.003	
9.605	0.097	-0.029	
9.610	0.271	-0.032	
9.615	-0.261	-0.010	
9.620	-0.096	-0.014	
9.625	0.392	-0.016	
9.630	-0.143	0.011	
9.635	-0.221	0.017	
9.640	0.282	0.003	
9.645	-0.018	0.010	
9.650	-0.306	0.009	
9.655	0.194	-0.013	
9.660	0.468	0.003	
9.665	-0.107	0.058	
9.670	0.113	0.091	
9.675	0.573	0.123	
9.680	-0.081	0.170	
9.685	-0.212	0.171	
9.690	0.282	0.130	
9.695	0.000	0.102	
9.700	-0.311	0.068	
9.705	0.093	0.014	
9.710	0.258	-0.009	
9.715	-0.268	-0.003	
9.720	-0.104	-0.017	
9.725	0.386	-0.025	
9.730	-0.134	0.000	
9.735	-0.221	0.008	
9.740	0.352	-0.000	
9.745	0.052	0.021	
9.750	-0.282	0.035	
9.755	0.184	0.020	
9.760	0.357	0.030	
9.765	-0.232	0.060	
9.770	-0.061	0.056	
9.775	0.456	0.048	
9.780	-0.108	0.070	
9.785	-0.203	0.069	
9.790	0.393	0.051	
9.795	0.143	0.066	
9.800	-0.241	0.081	
9.805	0.192	0.067	
9.810	0.380	0.072	
9.815	-0.209	0.095	
9.820	-0.032	0.086	
9.825	0.511	0.076	
9.830	-0.075	0.100	
9.835	-0.183	0.101	
9.840	0.413	0.082	
9.845	0.139	0.093	
9.850	-0.246	0.102	
9.855	0.192	0.080	
9.860	0.386	0.079	
9.865	-0.191	0.099	
9.870	-0.026	0.090	
9.875	0.482	0.080	
9.880	-0.092	0.099	
9.885	-0.200	0.095	
9.890	0.360	0.069	
9.895	0.085	0.072	
9.900	-0.267	0.072	
9.905	0.189	0.047	
9.910	0.416	0.050	
9.915	-0.188	0.081	
9.920	-0.043	0.081	
9.925	0.480	0.076	
9.930	-0.056	0.099	
9.935	-0.140	0.102	
9.940	0.466	0.091	
9.945	0.157	0.113	
9.950	-0.241	0.127	
9.955	0.190	0.105	
9.960	0.354	0.097	
9.965	-0.226	0.107	
9.970	-0.090	0.083	
9.975	0.387	0.055	
9.980	-0.137	0.056	
9.985	-0.244	0.041	
9.990	0.274	0.009	
9.995	0.017	0.007	
10.000	-0.313	0.004	
10.005	0.046	-0.024	
10.010	0.242	-0.032	
10.015	-0.250	-0.018	
10.020	-0.110	-0.024	
10.025	0.360	-0.028	
10.030	-0.133	-0.003	
10.035	-0.246	0.003	
10.040	0.303	-0.009	
10.045	0.136	0.009	
10.050	-0.221	0.033	
10.055	0.285	0.038	
10.060	0.459	0.070	
10.065	-0.206	0.119	
10.070	-0.111	0.118	
10.075	0.337	0.092	
10.080	-0.168	0.080	
10.085	-0.262	0.047	
10.090	0.253	0.002	
10.095	0.055	-0.006	
10.100	-0.271	-0.005	
10.105	0.096	-0.022	
10.110	0.297	-0.016	
10.115	-0.246	0.010	
10.120	-0.107	0.008	
10.125	0.412	0.003	
10.130	-0.082	0.029	
10.135	-0.206	0.038	
10.140	0.335	0.029	
10.145	0.096	0.044	
10.150	-0.259	0.056	
10.155	0.143	0.039	
10.160	0.402	0.043	
10.165	-0.178	0.073	
10.170	-0.050	0.073	
10.175	0.491	0.070	
10.180	-0.072	0.095	
10.185	-0.204	0.097	
10.190	0.352	0.073	
10.195	0.120	0.077	
10.200	-0.250	0.081	
10.205	0.145	0.057	
10.210	0.344	0.052	
10.215	-0.218	0.069	
10.220	-0.076	0.056	
10.225	0.465	0.044	
10.230	-0.076	0.066	
10.235	-0.203	0.070	
10.240	0.363	0.053	
10.245	0.145	0.066	
10.250	-0.256	0.078	
10.255	0.131	0.059	
10.260	0.354	0.055	
10.265	-0.217	0.072	
10.270	-0.090	0.059	
10.275	0.437	0.044	
10.280	-0.076	0.061	
10.285	-0.227	0.061	
10.290	0.309	0.039	
10.295	0.123	0.045	
10.300	-0.255	0.054	
10.305	0.111	0.035	
10.310	0.335	0.034	
10.315	-0.223	0.053	
10.320	-0.105	0.042	
10.325	0.424	0.029	
10.330	-0.098	0.047	
10.335	-0.226	0.047	
10.340	0.280	0.026	
10.345	0.046	0.029	
10.350	-0.310	0.027	
10.355	0.017	-0.004	
10.360	0.219	-0.021	
10.365	-0.293	-0.018	
10.370	-0.191	-0.039	
10.375	0.250	-0.062	
10.380	-0.177	-0.055	
10.385	-0.299	-0.061	
10.390	0.192	-0.079	
10.395	-0.002	-0.069	
10.400	-0.348	-0.059	
10.405	-0.029	-0.077	
10.410	0.161	-0.083	
10.415	-0.305	-0.071	
10.420	-0.192	-0.081	
10.425	0.280	-0.090	
10.430	-0.131	-0.067	
10.435	-0.220	-0.053	
10.440	0.422	-0.043	
10.445	0.245	0.010	
10.450	-0.236	0.066	
10.455	0.091	0.074	
10.460	0.273	0.075	
10.465	-0.273	0.078	
10.470	-0.185	0.044	
10.475	0.258	0.002	
10.480	-0.172	-0.012	
10.485	-0.291	-0.034	
10.490	0.232	-0.063	
10.495	0.053	-0.055	
10.500	-0.317	-0.040	
10.505	0.009	-0.052	
10.510	0.224	-0.051	
10.515	-0.274	-0.033	
10.520	-0.171	-0.041	
10.525	0.308	-0.052	
10.530	-0.140	-0.033	
10.535	-0.277	-0.030	
10.540	0.218	-0.044	
10.545	0.026	-0.035	
10.550	-0.331	-0.027	
10.555	-0.008	-0.047	
10.560	0.253	-0.053	
10.565	-0.235	-0.034	
10.570	-0.140	-0.035	
10.575	0.332	-0.037	
10.580	-0.114	-0.013	
10.585	-0.253	-0.005	
10.590	0.264	-0.017	
10.595	0.104	-0.002	
10.600	-0.279	0.014	
10.605	0.053	0.001	
10.610	0.319	0.001	
10.615	-0.210	0.023	
10.620	-0.104	0.020	
10.625	0.422	0.015	
10.630	-0.082	0.040	
10.635	-0.246	0.046	
10.640	0.268	0.026	
10.645	0.085	0.029	
10.650	-0.290	0.032	
10.655	0.049	0.007	
10.660	0.325	-0.001	
10.665	-0.217	0.018	
10.670	-0.125	0.013	
10.675	0.393	0.005	
10.680	-0.082	0.027	
10.685	-0.223	0.033	
10.690	0.338	0.021	
10.695	0.175	0.040	
10.700	-0.252	0.063	
10.705	0.133	0.053	
10.710	0.425	0.059	
10.715	-0.168	0.088	
10.720	-0.079	0.087	
10.725	0.445	0.076	
10.730	-0.058	0.091	
10.735	-0.226	0.087	
10.740	0.294	0.058	
10.745	0.140	0.057	
10.750	-0.274	0.060	
10.755	0.067	0.034	
10.760	0.361	0.026	
10.765	-0.201	0.044	
10.770	-0.134	0.036	
10.775	0.398	0.023	
10.780	-0.078	0.039	
10.785	-0.242	0.040	
10.790	0.267	0.019	
10.795	0.117	0.024	
10.800	-0.279	0.032	
10.805	0.059	0.013	
10.810	0.332	0.009	
10.815	-0.200	0.029	
10.820	-0.055	0.029	
10.825	0.601	0.036	
10.830	0.130	0.092	
10.835	-0.082	0.139	
10.840	0.523	0.158	
10.845	0.274	0.196	
10.850	-0.246	0.216	
10.855	0.073	0.180	
10.860	0.332	0.139	
10.865	-0.209	0.118	
10.870	-0.131	0.076	
10.875	0.398	0.038	
10.880	-0.087	0.039	
10.885	-0.246	0.031	
10.890	0.285	0.008	
10.895	0.131	0.016	
10.900	-0.264	0.030	
10.905	0.099	0.018	
10.910	0.405	0.024	
10.915	-0.174	0.057	
10.920	-0.087	0.061	
10.925	0.476	0.058	
10.930	-0.034	0.084	
10.935	-0.213	0.090	
10.940	0.302	0.069	
10.945	0.154	0.071	
10.950	-0.247	0.076	
10.955	0.116	0.054	
10.960	0.427	0.052	
10.965	-0.156	0.079	
10.970	-0.066	0.080	
10.975	0.509	0.076	
10.980	-0.021	0.103	
10.985	-0.189	0.110	
10.990	0.381	0.092	
10.995	0.223	0.103	
11.000	-0.233	0.117	
11.005	0.131	0.097	
11.010	0.410	0.089	
11.015	-0.182	0.105	
11.020	-0.110	0.090	
11.025	0.407	0.066	
11.030	-0.079	0.071	
11.035	-0.249	0.061	
11.040	0.279	0.030	
11.045	0.157	0.031	
11.050	-0.271	0.041	
11.055	0.056	0.023	
11.060	0.349	0.019	
11.065	-0.204	0.038	
11.070	-0.133	0.032	
11.075	0.416	0.021	
11.080	-0.043	0.042	
11.085	-0.194	0.050	
11.090	0.381	0.043	
11.095	0.253	0.070	
11.100	-0.215	0.101	
11.105	0.166	0.097	
11.110	0.497	0.106	
11.115	-0.128	0.138	
11.120	-0.056	0.137	
11.125	0.485	0.122	
11.130	-0.038	0.133	
11.135	-0.238	0.122	
11.140	0.268	0.082	
11.145	0.145	0.068	
11.150	-0.274	0.062	
11.155	0.037	0.030	
11.160	0.329	0.015	
11.165	-0.209	0.027	
11.170	-0.134	0.018	
11.175	0.390	0.006	
11.180	-0.093	0.025	
11.185	-0.262	0.026	
11.190	0.238	0.005	
11.195	0.119	0.009	
11.200	-0.287	0.018	
11.205	0.012	-0.001	
11.210	0.320	-0.008	
11.215	-0.178	0.012	
11.220	-0.038	0.016	
11.225	0.703	0.036	
11.230	0.245	0.113	
11.235	-0.081	0.182	
11.240	0.469	0.208	
11.245	0.256	0.233	
11.250	-0.246	0.237	
11.255	0.038	0.186	
11.260	0.329	0.134	
11.265	-0.212	0.106	
11.270	-0.148	0.061	
11.275	0.344	0.021	
11.280	-0.092	0.018	
11.285	-0.253	0.009	
11.290	0.224	-0.015	
11.295	0.114	-0.009	
11.300	-0.277	0.003	
11.305	0.030	-0.010	
11.310	0.349	-0.009	
11.315	-0.186	0.019	
11.320	-0.130	0.022	
11.325	0.392	0.017	
11.330	-0.052	0.039	
11.335	-0.220	0.046	
11.340	0.311	0.032	
11.345	0.242	0.050	
11.350	-0.227	0.075	
11.355	0.114	0.069	
11.360	0.439	0.074	
11.365	-0.142	0.102	
11.370	-0.069	0.101	
11.375	0.494	0.092	
11.380	0.017	0.113	
11.385	-0.166	0.120	
11.390	0.392	0.104	
11.395	0.273	0.119	
11.400	-0.213	0.137	
11.405	0.101	0.118	
11.410	0.416	0.106	
11.415	-0.165	0.116	
11.420	-0.105	0.098	
11.425	0.407	0.073	
11.430	-0.061	0.077	
11.435	-0.230	0.067	
11.440	0.267	0.038	
11.445	0.177	0.039	
11.450	-0.256	0.049	
11.455	0.050	0.032	
11.460	0.366	0.027	
11.465	-0.182	0.047	
11.470	-0.114	0.044	
11.475	0.413	0.034	
11.480	-0.018	0.055	
11.485	-0.191	0.063	
11.490	0.319	0.052	
11.495	0.233	0.069	
11.500	-0.212	0.090	
11.505	0.146	0.082	
11.510	0.482	0.089	
11.515	-0.136	0.121	
11.520	-0.085	0.120	
11.525	0.450	0.104	
11.530	-0.031	0.113	
11.535	-0.224	0.104	
11.540	0.256	0.070	
11.545	0.157	0.061	
11.550	-0.273	0.059	
11.555	-0.012	0.029	
11.560	0.264	0.007	
11.565	-0.242	0.007	
11.570	-0.201	-0.013	
11.575	0.279	-0.038	
11.580	-0.114	-0.032	
11.585	-0.300	-0.034	
11.590	0.154	-0.055	
11.595	0.094	-0.051	
11.600	-0.294	-0.037	
11.605	-0.021	-0.047	
11.610	0.285	-0.046	
11.615	-0.204	-0.021	
11.620	-0.111	-0.016	
11.625	0.543	-0.005	
11.630	0.200	0.056	
11.635	-0.096	0.114	
11.640	0.422	0.142	
11.645	0.232	0.174	
11.650	-0.268	0.187	
11.655	-0.018	0.143	
11.660	0.337	0.097	
11.665	-0.223	0.076	
11.670	-0.209	0.037	
11.675	0.251	-0.007	
11.680	-0.111	-0.019	
11.685	-0.276	-0.032	
11.690	0.177	-0.056	
11.695	0.110	-0.048	
11.700	-0.294	-0.031	
11.705	-0.014	-0.039	
11.710	0.349	-0.035	
11.715	-0.197	-0.004	
11.720	-0.157	0.003	
11.725	0.352	-0.002	
11.730	-0.063	0.019	
11.735	-0.239	0.025	
11.740	0.247	0.010	
11.745	0.187	0.021	
11.750	-0.242	0.040	
11.755	0.044	0.030	
11.760	0.404	0.031	
11.765	-0.104	0.061	
11.770	-0.081	0.069	
11.775	0.454	0.069	
11.780	0.012	0.095	
11.785	-0.206	0.103	
11.790	0.302	0.083	
11.795	0.236	0.088	
11.800	-0.220	0.099	
11.805	0.085	0.081	
11.810	0.427	0.075	
11.815	-0.140	0.094	
11.820	-0.102	0.089	
11.825	0.419	0.073	
11.830	-0.034	0.084	
11.835	-0.239	0.079	
11.840	0.251	0.050	
11.845	0.180	0.047	
11.850	-0.276	0.052	
11.855	-0.024	0.027	
11.860	0.312	0.009	
11.865	-0.198	0.017	
11.870	-0.153	0.007	
11.875	0.370	-0.005	
11.880	-0.043	0.015	
11.885	-0.230	0.024	
11.890	0.262	0.013	
11.895	0.223	0.029	
11.900	-0.218	0.054	
11.905	0.070	0.050	
11.910	0.413	0.054	
11.915	-0.157	0.080	
11.920	-0.133	0.077	
11.925	0.378	0.059	
11.930	-0.040	0.066	
11.935	-0.247	0.060	
11.940	0.189	0.030	
11.945	0.113	0.021	
11.950	-0.303	0.018	
11.955	-0.076	-0.013	
11.960	0.227	-0.037	
11.965	-0.241	-0.035	
11.970	-0.207	-0.049	
11.975	0.229	-0.067	
11.980	-0.120	-0.057	
11.985	-0.310	-0.057	
11.990	0.113	-0.075	
11.995	0.067	-0.071	
12.000	-0.310	-0.059	
12.005	-0.063	-0.070	
12.010	0.262	-0.071	
12.015	-0.209	-0.046	
12.020	-0.136	-0.039	
12.025	0.520	-0.027	
12.030	0.183	0.034	
12.035	-0.122	0.093	
12.040	0.402	0.121	
12.045	0.270	0.156	
12.050	-0.255	0.176	
12.055	-0.046	0.141	
12.060	0.247	0.092	
12.065	-0.239	0.061	
12.070	-0.221	0.014	
12.075	0.213	-0.034	
12.080	-0.131	-0.047	
12.085	-0.328	-0.063	
12.090	0.073	-0.092	
12.095	0.065	-0.094	
12.100	-0.303	-0.083	
12.105	-0.060	-0.090	
12.110	0.267	-0.084	
12.115	-0.210	-0.053	
12.120	-0.168	-0.043	
12.125	0.314	-0.041	
12.130	-0.072	-0.014	
12.135	-0.274	-0.004	
12.140	0.143	-0.020	
12.145	0.137	-0.017	
12.150	-0.262	-0.005	
12.155	0.008	-0.016	
12.160	0.384	-0.012	
12.165	-0.154	0.021	
12.170	-0.128	0.031	
12.175	0.416	0.030	
12.180	0.003	0.057	
12.185	-0.215	0.069	
12.190	0.305	0.057	
12.195	0.265	0.071	
12.200	-0.227	0.092	
12.205	0.047	0.080	
12.210	0.404	0.071	
12.215	-0.154	0.086	
12.220	-0.153	0.075	
12.225	0.352	0.051	
12.230	-0.041	0.053	
12.235	-0.261	0.045	
12.240	0.166	0.014	
12.245	0.163	0.007	
12.250	-0.277	0.012	
12.255	-0.052	-0.008	
12.260	0.279	-0.021	
12.265	-0.213	-0.010	
12.270	-0.197	-0.019	
12.275	0.308	-0.033	
12.280	-0.053	-0.018	
12.285	-0.265	-0.010	
12.290	0.197	-0.022	
12.295	0.226	-0.007	
12.300	-0.242	0.020	
12.305	-0.002	0.017	
12.310	0.384	0.019	
12.315	-0.149	0.045	
12.320	-0.153	0.047	
12.325	0.363	0.034	
12.330	-0.020	0.048	
12.335	-0.249	0.049	
12.340	0.190	0.025	
12.345	0.160	0.022	
12.350	-0.276	0.028	
12.355	-0.052	0.005	
12.360	0.306	-0.011	
12.365	-0.206	-0.000	
12.370	-0.217	-0.010	
12.375	0.242	-0.031	
12.380	-0.070	-0.026	
12.385	-0.284	-0.028	
12.390	0.119	-0.047	
12.395	0.122	-0.045	
12.400	-0.290	-0.032	
12.405	-0.072	-0.044	
12.410	0.279	-0.049	
12.415	-0.174	-0.028	
12.420	-0.156	-0.023	
12.425	0.434	-0.018	
12.430	0.155	0.027	
12.435	-0.151	0.072	
12.440	0.300	0.088	
12.445	0.238	0.111	
12.450	-0.262	0.126	
12.455	-0.055	0.094	
12.460	0.294	0.057	
12.465	-0.191	0.045	
12.470	-0.191	0.017	
12.475	0.291	-0.012	
12.480	-0.043	-0.008	
12.485	-0.249	-0.007	
12.490	0.215	-0.020	
12.495	0.218	-0.004	
12.500	-0.242	0.023	
12.505	-0.017	0.019	
12.510	0.357	0.017	
12.515	-0.151	0.039	
12.520	-0.154	0.037	
12.525	0.381	0.026	
12.530	0.004	0.044	
12.535	-0.242	0.052	
12.540	0.209	0.033	
12.545	0.239	0.037	
12.550	-0.233	0.053	
12.555	-0.012	0.040	
12.560	0.407	0.033	
12.565	-0.125	0.055	
12.570	-0.143	0.056	
12.575	0.402	0.046	
12.580	0.073	0.066	
12.585	-0.201	0.080	
12.590	0.293	0.070	
12.595	0.328	0.085	
12.600	-0.191	0.112	
12.605	0.053	0.104	
12.610	0.462	0.099	
12.615	-0.108	0.118	
12.620	-0.114	0.112	
12.625	0.425	0.092	
12.630	0.043	0.101	
12.635	-0.217	0.101	
12.640	0.261	0.076	
12.645	0.311	0.078	
12.650	-0.203	0.096	
12.655	0.027	0.084	
12.660	0.418	0.075	
12.665	-0.122	0.091	
12.670	-0.146	0.083	
12.675	0.354	0.061	
12.680	0.014	0.066	
12.685	-0.220	0.063	
12.690	0.258	0.042	
12.695	0.311	0.052	
12.700	-0.195	0.079	
12.705	0.032	0.076	
12.710	0.439	0.074	
12.715	-0.111	0.096	
12.720	-0.143	0.093	
12.725	0.387	0.074	
12.730	0.038	0.081	
12.735	-0.224	0.081	
12.740	0.203	0.057	
12.745	0.210	0.052	
12.750	-0.238	0.058	
12.755	-0.037	0.036	
12.760	0.338	0.020	
12.765	-0.156	0.031	
12.770	-0.191	0.023	
12.775	0.273	0.003	
12.780	-0.037	0.007	
12.785	-0.267	0.005	
12.790	0.152	-0.017	
12.795	0.215	-0.012	
12.800	-0.255	0.007	
12.805	-0.072	-0.002	
12.810	0.337	-0.008	
12.815	-0.133	0.012	
12.820	-0.134	0.016	
12.825	0.491	0.020	
12.830	0.223	0.067	
12.835	-0.136	0.115	
12.840	0.306	0.129	
12.845	0.270	0.147	
12.850	-0.233	0.157	
12.855	-0.082	0.120	
12.860	0.276	0.074	
12.865	-0.185	0.051	
12.870	-0.209	0.016	
12.875	0.268	-0.019	
12.880	-0.031	-0.019	
12.885	-0.273	-0.019	
12.890	0.101	-0.037	
12.895	0.187	-0.034	
12.900	-0.241	-0.015	
12.905	-0.044	-0.019	
12.910	0.387	-0.015	
12.915	-0.114	0.019	
12.920	-0.151	0.032	
12.925	0.360	0.030	
12.930	0.058	0.052	
12.935	-0.217	0.066	
12.940	0.216	0.053	
12.945	0.308	0.061	
12.950	-0.194	0.083	
12.955	-0.002	0.075	
12.960	0.430	0.068	
12.965	-0.089	0.087	
12.970	-0.140	0.086	
12.975	0.427	0.072	
12.980	0.116	0.090	
12.985	-0.195	0.104	
12.990	0.256	0.091	
12.995	0.337	0.097	
13.000	-0.174	0.118	
13.005	0.003	0.106	
13.010	0.450	0.093	
13.015	-0.089	0.107	
13.020	-0.168	0.099	
13.025	0.351	0.074	
13.030	0.062	0.075	
13.035	-0.230	0.073	
13.040	0.204	0.050	
13.045	0.306	0.051	
13.050	-0.215	0.070	
13.055	-0.049	0.059	
13.060	0.363	0.045	
13.065	-0.134	0.054	
13.070	-0.183	0.045	
13.075	0.361	0.026	
13.080	0.082	0.040	
13.085	-0.227	0.054	
13.090	0.201	0.042	
13.095	0.331	0.052	
13.100	-0.177	0.079	
13.105	0.017	0.078	
13.110	0.485	0.078	
13.115	-0.060	0.107	
13.120	-0.139	0.112	
13.125	0.395	0.096	
13.130	0.091	0.105	
13.135	-0.227	0.106	
13.140	0.152	0.077	
13.145	0.262	0.065	
13.150	-0.238	0.067	
13.155	-0.085	0.042	
13.160	0.328	0.018	
13.165	-0.166	0.021	
13.170	-0.239	0.008	
13.175	0.213	-0.020	
13.180	-0.026	-0.023	
13.185	-0.296	-0.026	
13.190	0.064	-0.048	
13.195	0.160	-0.051	
13.200	-0.290	-0.038	
13.205	-0.124	-0.050	
13.210	0.337	-0.056	
13.215	-0.107	-0.028	
13.220	-0.113	-0.009	
13.225	0.550	0.013	
13.230	0.223	0.076	
13.235	-0.212	0.130	
13.240	0.149	0.130	
13.245	0.216	0.120	
13.250	-0.268	0.107	
13.255	-0.122	0.061	
13.260	0.276	0.016	
13.265	-0.168	0.003	
13.270	-0.229	-0.017	
13.275	0.261	-0.041	
13.280	0.018	-0.031	
13.285	-0.284	-0.019	
13.290	0.094	-0.031	
13.295	0.235	-0.025	
13.300	-0.235	-0.002	
13.305	-0.082	-0.005	
13.310	0.370	-0.007	
13.315	-0.134	0.018	
13.320	-0.210	0.021	
13.325	0.297	0.007	
13.330	0.055	0.019	
13.335	-0.246	0.029	
13.340	0.152	0.016	
13.345	0.297	0.022	
13.350	-0.203	0.047	
13.355	-0.027	0.044	
13.360	0.450	0.043	
13.365	-0.090	0.071	
13.370	-0.172	0.076	
13.375	0.373	0.062	
13.380	0.110	0.075	
13.385	-0.221	0.085	
13.390	0.189	0.067	
13.395	0.325	0.068	
13.400	-0.206	0.086	
13.405	-0.064	0.071	
13.410	0.383	0.053	
13.415	-0.127	0.061	
13.420	-0.215	0.050	
13.425	0.294	0.023	
13.430	0.049	0.025	
13.435	-0.268	0.027	
13.440	0.087	0.005	
13.445	0.241	-0.001	
13.450	-0.244	0.012	
13.455	-0.107	-0.000	
13.460	0.325	-0.013	
13.465	-0.140	0.002	
13.470	-0.217	0.001	
13.475	0.302	-0.012	
13.480	0.070	0.005	
13.485	-0.239	0.021	
13.490	0.143	0.013	
13.495	0.311	0.024	
13.500	-0.209	0.050	
13.505	-0.061	0.046	
13.510	0.360	0.037	
13.515	-0.137	0.049	
13.520	-0.227	0.040	
13.525	0.259	0.013	
13.530	0.026	0.012	
13.535	-0.277	0.010	
13.540	0.073	-0.013	
13.545	0.226	-0.018	
13.550	-0.256	-0.005	
13.555	-0.113	-0.016	
13.560	0.296	-0.027	
13.565	-0.182	-0.014	
13.570	-0.265	-0.020	
13.575	0.195	-0.043	
13.580	-0.026	-0.042	
13.585	-0.296	-0.041	
13.590	0.030	-0.060	
13.595	0.181	-0.061	
13.600	-0.279	-0.044	
13.605	-0.143	-0.052	
13.610	0.364	-0.056	
13.615	-0.053	-0.023	
13.620	-0.082	0.006	
13.625	0.576	0.035	
13.630	0.285	0.106	
13.635	-0.191	0.165	
13.640	0.169	0.167	
13.645	0.273	0.157	
13.650	-0.232	0.145	
13.655	-0.120	0.098	
13.660	0.265	0.047	
13.665	-0.191	0.024	
13.670	-0.268	-0.010	
13.675	0.210	-0.049	
13.680	0.008	-0.051	
13.685	-0.277	-0.045	
13.690	0.068	-0.056	
13.695	0.259	-0.046	
13.700	-0.221	-0.015	
13.705	-0.060	-0.009	
13.710	0.408	-0.001	
13.715	-0.105	0.033	
13.720	-0.206	0.044	
13.725	0.308	0.031	
13.730	0.087	0.042	
13.735	-0.238	0.051	
13.740	0.168	0.036	
13.745	0.358	0.043	
13.750	-0.177	0.071	
13.755	-0.038	0.070	
13.760	0.441	0.065	
13.765	-0.079	0.086	
13.770	-0.194	0.085	
13.775	0.348	0.063	
13.780	0.101	0.068	
13.785	-0.241	0.072	
13.790	0.151	0.051	
13.795	0.322	0.048	
13.800	-0.197	0.066	
13.805	-0.053	0.056	
13.810	0.419	0.047	
13.815	-0.081	0.066	
13.820	-0.182	0.067	
13.825	0.349	0.050	
13.830	0.104	0.062	
13.835	-0.255	0.070	
13.840	0.117	0.048	
13.845	0.308	0.041	
13.850	-0.209	0.055	
13.855	-0.064	0.043	
13.860	0.437	0.034	
13.865	-0.063	0.058	
13.870	-0.172	0.065	
13.875	0.372	0.055	
13.880	0.142	0.073	
13.885	-0.226	0.088	
13.890	0.168	0.073	
13.895	0.373	0.074	
13.900	-0.180	0.095	
13.905	-0.073	0.085	
13.910	0.395	0.067	
13.915	-0.101	0.075	
13.920	-0.194	0.065	
13.925	0.349	0.041	
13.930	0.073	0.049	
13.935	-0.258	0.054	
13.940	0.073	0.030	
13.945	0.279	0.020	
13.950	-0.236	0.030	
13.955	-0.130	0.014	
13.960	0.320	-0.004	
13.965	-0.143	0.004	
13.970	-0.258	-0.003	
13.975	0.215	-0.026	
13.980	0.038	-0.023	
13.985	-0.279	-0.017	
13.990	0.030	-0.033	
13.995	0.245	-0.034	
14.000	-0.252	-0.016	
14.005	-0.108	-0.021	
14.010	0.468	-0.019	
14.015	0.043	0.025	
14.020	-0.061	0.065	
14.025	0.523	0.093	
14.030	0.233	0.146	
14.035	-0.226	0.180	
14.040	0.123	0.159	
14.045	0.317	0.135	
14.050	-0.229	0.123	
14.055	-0.117	0.082	
14.060	0.369	0.043	
14.065	-0.125	0.038	
14.070	-0.210	0.025	
14.075	0.341	0.004	
14.080	0.120	0.021	
14.085	-0.267	0.039	
14.090	0.056	0.025	
14.095	0.282	0.019	
14.100	-0.226	0.031	
14.105	-0.110	0.018	
14.110	0.395	0.006	
14.115	-0.107	0.026	
14.120	-0.223	0.028	
14.125	0.329	0.014	
14.130	0.130	0.031	
14.135	-0.252	0.049	
14.140	0.160	0.039	
14.145	0.450	0.051	
14.150	-0.185	0.087	
14.155	-0.082	0.089	
14.160	0.472	0.079	
14.165	-0.063	0.097	
14.170	-0.204	0.094	
14.175	0.389	0.072	
14.180	0.194	0.083	
14.185	-0.241	0.098	
14.190	0.154	0.081	
14.195	0.404	0.079	
14.200	-0.185	0.100	
14.205	-0.104	0.088	
14.210	0.386	0.066	
14.215	-0.108	0.069	
14.220	-0.236	0.054	
14.225	0.282	0.023	
14.230	0.101	0.024	
14.235	-0.284	0.029	
14.240	0.046	0.006	
14.245	0.262	-0.003	
14.250	-0.255	0.008	
14.255	-0.136	-0.006	
14.260	0.366	-0.019	
14.265	-0.119	0.000	
14.270	-0.244	0.004	
14.275	0.262	-0.011	
14.280	0.073	0.000	
14.285	-0.270	0.012	
14.290	0.125	-0.000	
14.295	0.413	0.012	
14.300	-0.194	0.051	
14.305	-0.066	0.059	
14.310	0.476	0.059	
14.315	-0.063	0.086	
14.320	-0.227	0.089	
14.325	0.268	0.063	
14.330	0.084	0.056	
14.335	-0.268	0.050	
14.340	0.104	0.022	
14.345	0.381	0.019	
14.350	-0.206	0.044	
14.355	-0.137	0.041	
14.360	0.358	0.026	
14.365	-0.082	0.037	
14.370	-0.212	0.034	
14.375	0.311	0.018	
14.380	0.104	0.030	
14.385	-0.281	0.042	
14.390	0.133	0.025	
14.395	0.430	0.031	
14.400	-0.145	0.067	
14.405	0.041	0.081	
14.410	0.735	0.104	
14.415	0.201	0.175	
14.420	-0.130	0.224	
14.425	0.419	0.224	
14.430	0.186	0.223	
14.435	-0.265	0.206	
14.440	0.012	0.144	
14.445	0.296	0.090	
14.450	-0.220	0.064	
14.455	-0.140	0.027	
14.460	0.387	-0.002	
14.465	-0.093	0.009	
14.470	-0.227	0.012	
14.475	0.337	0.001	
14.480	0.206	0.026	
14.485	-0.217	0.058	
14.490	0.177	0.060	
14.495	0.494	0.080	
14.500	-0.156	0.121	
14.505	-0.056	0.125	
14.510	0.441	0.112	
14.515	-0.058	0.120	
14.520	-0.212	0.107	
14.525	0.355	0.075	
14.530	0.219	0.079	
14.535	-0.236	0.092	
14.540	0.044	0.071	
14.545	0.312	0.056	
14.550	-0.195	0.060	
14.555	-0.085	0.043	
14.560	0.498	0.033	
14.565	0.006	0.064	
14.570	-0.192	0.083	
14.575	0.319	0.074	
14.580	0.213	0.086	
14.585	-0.247	0.099	
14.590	0.076	0.078	
14.595	0.407	0.067	
14.600	-0.182	0.083	
14.605	-0.122	0.071	
14.610	0.369	0.050	
14.615	-0.079	0.055	
14.620	-0.233	0.046	
14.625	0.224	0.018	
14.630	0.097	0.016	
14.635	-0.273	0.018	
14.640	0.041	-0.003	
14.645	0.395	-0.003	
14.650	-0.169	0.028	
14.655	-0.122	0.035	
14.660	0.412	0.032	
14.665	-0.035	0.055	
14.670	-0.249	0.061	
14.675	0.183	0.036	
14.680	0.117	0.028	
14.685	-0.273	0.026	
14.690	0.062	0.003	
14.695	0.337	-0.000	
14.700	-0.217	0.022	
14.705	-0.157	0.018	
14.710	0.322	0.002	
14.715	-0.064	0.014	
14.720	-0.227	0.015	
14.725	0.186	-0.002	
14.730	0.065	-0.001	
14.735	-0.284	0.002	
14.740	0.011	-0.020	
14.745	0.349	-0.023	
14.750	-0.217	0.002	
14.755	-0.175	0.003	
14.760	0.346	-0.008	
14.765	-0.049	0.010	
14.770	-0.218	0.018	
14.775	0.297	0.010	
14.780	0.168	0.030	
14.785	-0.235	0.052	
14.790	0.072	0.043	
14.795	0.480	0.048	
14.800	-0.034	0.088	
14.805	0.111	0.116	
14.810	0.669	0.147	
14.815	0.158	0.210	
14.820	-0.136	0.241	
14.825	0.352	0.223	
14.830	0.165	0.207	
14.835	-0.239	0.181	
14.840	0.040	0.122	
14.845	0.383	0.081	
14.850	-0.168	0.075	
14.855	-0.107	0.056	
14.860	0.425	0.038	
14.865	-0.006	0.056	
14.870	-0.204	0.064	
14.875	0.262	0.049	
14.880	0.209	0.057	
14.885	-0.210	0.072	
14.890	0.055	0.059	
14.895	0.424	0.057	
14.900	-0.142	0.080	
14.905	-0.101	0.079	
14.910	0.444	0.068	
14.915	0.001	0.087	
14.920	-0.207	0.091	
14.925	0.279	0.070	
14.930	0.233	0.074	
14.935	-0.207	0.087	
14.940	0.105	0.074	
14.945	0.450	0.074	
14.950	-0.113	0.102	
14.955	-0.075	0.104	
14.960	0.489	0.096	
14.965	0.027	0.117	
14.970	-0.203	0.122	
14.975	0.308	0.098	
14.980	0.256	0.100	
14.985	-0.204	0.110	
14.990	0.081	0.092	
14.995	0.434	0.084	
15.000	-0.131	0.102	
15.005	-0.093	0.096	
15.010	0.421	0.080	
15.015	0.000	0.092	
15.020	-0.204	0.091	
15.025	0.215	0.065	
15.030	0.154	0.057	
15.035	-0.268	0.055	
15.040	-0.002	0.026	
15.045	0.373	0.011	
15.050	-0.162	0.029	
15.055	-0.137	0.029	
15.060	0.358	0.019	
15.065	-0.044	0.036	
15.070	-0.238	0.039	
15.075	0.210	0.019	
15.080	0.168	0.022	
15.085	-0.253	0.033	
15.090	-0.012	0.016	
15.095	0.335	0.007	
15.100	-0.195	0.023	
15.105	-0.185	0.016	
15.110	0.290	-0.004	
15.115	-0.114	0.000	
15.120	-0.316	-0.009	
15.125	0.068	-0.044	
15.130	0.024	-0.060	
15.135	-0.334	-0.066	
15.140	-0.105	-0.092	
15.145	0.148	-0.106	
15.150	-0.277	-0.097	
15.155	-0.252	-0.105	
15.160	0.158	-0.119	
15.165	-0.154	-0.107	
15.170	-0.346	-0.105	
15.175	0.015	-0.123	
15.180	0.035	-0.122	
15.185	-0.290	-0.108	
15.190	0.011	-0.106	
15.195	0.465	-0.077	
15.200	-0.107	-0.009	
15.205	-0.119	0.031	
15.210	0.331	0.045	
15.215	-0.084	0.065	
15.220	-0.310	0.056	
15.225	0.067	0.012	
15.230	0.043	-0.018	
15.235	-0.320	-0.037	
15.240	-0.093	-0.072	
15.245	0.183	-0.090	
15.250	-0.246	-0.082	
15.255	-0.215	-0.086	
15.260	0.213	-0.094	
15.265	-0.116	-0.076	
15.270	-0.302	-0.068	
15.275	0.133	-0.079	
15.280	0.111	-0.066	
15.285	-0.279	-0.044	
15.290	-0.031	-0.047	
15.295	0.258	-0.044	
15.300	-0.235	-0.022	
15.305	-0.210	-0.027	
15.310	0.264	-0.043	
15.315	-0.079	-0.032	
15.320	-0.279	-0.028	
15.325	0.145	-0.044	
15.330	0.143	-0.037	
15.335	-0.261	-0.018	
15.340	0.000	-0.023	
15.345	0.364	-0.017	
15.350	-0.145	0.016	
15.355	-0.136	0.027	
15.360	0.381	0.025	
15.365	-0.032	0.048	
15.370	-0.241	0.053	
15.375	0.212	0.032	
15.380	0.209	0.034	
15.385	-0.233	0.047	
15.390	-0.037	0.031	
15.395	0.308	0.017	
15.400	-0.186	0.026	
15.405	-0.166	0.014	
15.410	0.352	-0.001	
15.415	-0.055	0.013	
15.420	-0.267	0.017	
15.425	0.181	-0.003	
15.430	0.168	-0.000	
15.435	-0.256	0.013	
15.440	-0.002	0.001	
15.445	0.383	0.001	
15.450	-0.140	0.029	
15.455	-0.130	0.037	
15.460	0.402	0.034	
15.465	0.020	0.058	
15.470	-0.209	0.070	
15.475	0.264	0.057	
15.480	0.245	0.066	
15.485	-0.217	0.083	
15.490	0.037	0.069	
15.495	0.373	0.060	
15.500	-0.163	0.073	
15.505	-0.180	0.060	
15.510	0.303	0.032	
15.515	-0.069	0.029	
15.520	-0.281	0.017	
15.525	0.142	-0.015	
15.530	0.151	-0.020	
15.535	-0.265	-0.011	
15.540	-0.035	-0.024	
15.545	0.358	-0.025	
15.550	-0.178	0.003	
15.555	-0.186	0.007	
15.560	0.293	-0.004	
15.565	-0.064	0.007	
15.570	-0.290	0.005	
15.575	0.125	-0.021	
15.580	0.184	-0.023	
15.585	-0.200	-0.006	
15.590	0.192	0.002	
15.595	0.669	0.045	
15.600	0.011	0.129	
15.605	-0.043	0.176	
15.610	0.476	0.186	
15.615	0.011	0.198	
15.620	-0.264	0.179	
15.625	0.168	0.120	
15.630	0.158	0.080	
15.635	-0.265	0.055	
15.640	-0.049	0.013	
15.645	0.308	-0.012	
15.650	-0.185	-0.005	
15.655	-0.174	-0.011	
15.660	0.328	-0.022	
15.665	-0.024	-0.002	
15.670	-0.250	0.010	
15.675	0.175	-0.003	
15.680	0.192	0.005	
15.685	-0.232	0.023	
15.690	0.018	0.016	
15.695	0.405	0.019	
15.700	-0.130	0.050	
15.705	-0.124	0.056	
15.710	0.428	0.052	
15.715	0.046	0.076	
15.720	-0.206	0.088	
15.725	0.285	0.074	
15.730	0.320	0.085	
15.735	-0.177	0.109	
15.740	0.073	0.103	
15.745	0.457	0.100	
15.750	-0.117	0.121	
15.755	-0.122	0.113	
15.760	0.441	0.092	
15.765	0.070	0.103	
15.770	-0.203	0.107	
15.775	0.268	0.086	
15.780	0.276	0.088	
15.785	-0.207	0.101	
15.790	0.040	0.084	
15.795	0.384	0.072	
15.800	-0.151	0.083	
15.805	-0.159	0.070	
15.810	0.351	0.045	
15.815	-0.002	0.049	
15.820	-0.239	0.047	
15.825	0.215	0.025	
15.830	0.277	0.032	
15.835	-0.215	0.054	
15.840	0.003	0.049	
15.845	0.412	0.046	
15.850	-0.120	0.069	
15.855	-0.131	0.069	
15.860	0.413	0.058	
15.865	0.064	0.077	
15.870	-0.185	0.088	
15.875	0.268	0.076	
15.880	0.262	0.084	
15.885	-0.229	0.099	
15.890	-0.017	0.078	
15.895	0.364	0.058	
15.900	-0.145	0.064	
15.905	-0.165	0.050	
15.910	0.337	0.028	
15.915	-0.020	0.035	
15.920	-0.255	0.034	
15.925	0.151	0.009	
15.930	0.169	0.006	
15.935	-0.262	0.013	
15.940	-0.055	-0.004	
15.945	0.331	-0.014	
15.950	-0.178	0.003	
15.955	-0.197	0.001	
15.960	0.264	-0.014	
15.965	-0.073	-0.008	
15.970	-0.291	-0.011	
15.975	0.149	-0.034	
15.980	0.267	-0.026	
15.985	-0.154	0.007	
15.990	0.219	0.030	
15.995	0.636	0.078	
16.000	-0.020	0.155	
16.005	-0.111	0.187	
16.010	0.367	0.174	
16.015	-0.031	0.163	
16.020	-0.274	0.129	
16.025	0.137	0.068	
16.030	0.210	0.035	
16.035	-0.232	0.027	
16.040	-0.027	0.006	
16.045	0.358	-0.003	
16.050	-0.157	0.018	
16.055	-0.185	0.019	
16.060	0.293	0.005	
16.065	-0.021	0.014	
16.070	-0.255	0.016	
16.075	0.172	-0.002	
16.080	0.239	0.004	
16.085	-0.217	0.027	
16.090	0.001	0.024	
16.095	0.416	0.027	
16.100	-0.125	0.057	
16.105	-0.160	0.061	
16.110	0.358	0.048	
16.115	0.032	0.060	
16.120	-0.227	0.063	
16.125	0.184	0.043	
16.130	0.253	0.043	
16.135	-0.198	0.058	
16.140	0.038	0.049	
16.145	0.442	0.051	
16.150	-0.114	0.080	
16.155	-0.143	0.082	
16.160	0.398	0.068	
16.165	0.065	0.082	
16.170	-0.220	0.088	
16.175	0.213	0.067	
16.180	0.279	0.067	
16.185	-0.212	0.080	
16.190	-0.023	0.064	
16.195	0.398	0.051	
16.200	-0.111	0.066	
16.205	-0.160	0.061	
16.210	0.340	0.044	
16.215	0.012	0.051	
16.220	-0.252	0.051	
16.225	0.148	0.026	
16.230	0.227	0.021	
16.235	-0.227	0.032	
16.240	-0.017	0.020	
16.245	0.413	0.018	
16.250	-0.105	0.046	
16.255	-0.162	0.053	
16.260	0.354	0.043	
16.265	0.050	0.058	
16.270	-0.215	0.066	
16.275	0.224	0.050	
16.280	0.294	0.057	
16.285	-0.204	0.079	
16.290	-0.027	0.068	
16.295	0.364	0.055	
16.300	-0.130	0.065	
16.305	-0.175	0.054	
16.310	0.291	0.031	
16.315	-0.014	0.031	
16.320	-0.258	0.026	
16.325	0.145	0.001	
16.330	0.209	-0.000	
16.335	-0.249	0.013	
16.340	-0.064	0.002	
16.345	0.341	-0.006	
16.350	-0.146	0.013	
16.355	-0.191	0.013	
16.360	0.288	0.000	
16.365	-0.029	0.010	
16.370	-0.276	0.011	
16.375	0.149	-0.011	
16.380	0.300	-0.004	
16.385	-0.154	0.027	
16.390	0.131	0.043	
16.395	0.547	0.073	
16.400	-0.075	0.128	
16.405	-0.154	0.142	
16.410	0.293	0.119	
16.415	-0.046	0.103	
16.420	-0.306	0.072	
16.425	0.047	0.015	
16.430	0.143	-0.019	
16.435	-0.265	-0.029	
16.440	-0.072	-0.050	
16.445	0.337	-0.054	
16.450	-0.154	-0.026	
16.455	-0.201	-0.015	
16.460	0.276	-0.020	
16.465	-0.008	-0.003	
16.470	-0.261	0.006	
16.475	0.104	-0.010	
16.480	0.203	-0.010	
16.485	-0.229	0.005	
16.490	-0.037	-0.002	
16.495	0.380	-0.001	
16.500	-0.124	0.027	
16.505	-0.175	0.034	
16.510	0.351	0.025	
16.515	0.072	0.044	
16.520	-0.210	0.058	
16.525	0.221	0.048	
16.530	0.306	0.060	
16.535	-0.186	0.084	
16.540	0.003	0.077	
16.545	0.448	0.072	
16.550	-0.084	0.094	
16.555	-0.146	0.094	
16.560	0.380	0.076	
16.565	0.102	0.087	
16.570	-0.212	0.093	
16.575	0.224	0.074	
16.580	0.323	0.077	
16.585	-0.192	0.096	
16.590	-0.021	0.083	
16.595	0.412	0.070	
16.600	-0.116	0.082	
16.605	-0.175	0.073	
16.610	0.332	0.049	
16.615	0.047	0.053	
16.620	-0.246	0.053	
16.625	0.136	0.030	
16.630	0.248	0.025	
16.635	-0.215	0.037	
16.640	-0.040	0.026	
16.645	0.402	0.021	
16.650	-0.095	0.046	
16.655	-0.127	0.053	
16.660	0.383	0.049	
16.665	0.064	0.070	
16.670	-0.236	0.080	
16.675	0.174	0.059	
16.680	0.320	0.058	
16.685	-0.169	0.077	
16.690	0.018	0.072	
16.695	0.486	0.072	
16.700	-0.015	0.104	
16.705	-0.041	0.120	
16.710	0.651	0.131	
16.715	0.430	0.190	
16.720	0.029	0.255	
16.725	0.649	0.293	
16.730	0.815	0.356	
16.735	0.212	0.436	
16.740	0.517	0.476	
16.745	1.041	0.514	
16.750	0.581	0.584	
16.755	0.476	0.634	
16.760	1.023	0.660	
16.765	0.726	0.700	
16.770	0.216	0.715	
16.775	0.742	0.678	
16.780	0.893	0.655	
16.785	0.300	0.653	
16.790	0.489	0.623	
16.795	0.825	0.590	
16.800	0.175	0.572	
16.805	-0.014	0.511	
16.810	0.441	0.414	
16.815	0.151	0.337	
16.820	-0.201	0.262	
16.825	0.107	0.170	
16.830	0.204	0.103	
16.835	-0.239	0.064	
16.840	-0.133	0.014	
16.845	0.174	-0.028	
16.850	-0.212	-0.044	
16.855	-0.294	-0.068	
16.860	0.029	-0.104	
16.865	-0.140	-0.119	
16.870	-0.380	-0.134	
16.875	-0.128	-0.164	
16.880	-0.049	-0.180	
16.885	-0.370	-0.182	
16.890	-0.227	-0.197	
16.895	0.105	-0.201	
16.900	-0.203	-0.176	
16.905	-0.264	-0.157	
16.910	0.133	-0.146	
16.915	-0.044	-0.116	
16.920	-0.287	-0.091	
16.925	0.029	-0.089	
16.930	0.125	-0.076	
16.935	-0.273	-0.056	
16.940	-0.159	-0.062	
16.945	0.155	-0.074	
16.950	-0.218	-0.069	
16.955	-0.297	-0.081	
16.960	0.043	-0.107	
16.965	-0.127	-0.116	
16.970	-0.383	-0.126	
16.975	-0.124	-0.155	
16.980	-0.031	-0.171	
16.985	-0.367	-0.173	
16.990	-0.267	-0.189	
16.995	-0.020	-0.205	
17.000	-0.319	-0.204	
17.005	-0.401	-0.214	
17.010	-0.101	-0.236	
17.015	-0.220	-0.242	
17.020	-0.439	-0.245	
17.025	-0.169	-0.259	
17.030	-0.093	-0.259	
17.035	-0.398	-0.246	
17.040	-0.238	-0.246	
17.045	0.192	-0.232	
17.050	-0.096	-0.180	
17.055	-0.143	-0.128	
17.060	0.346	-0.080	
17.065	0.155	-0.010	
17.070	-0.169	0.049	
17.075	0.238	0.072	
17.080	0.527	0.108	
17.085	0.044	0.168	
17.090	0.264	0.207	
17.095	0.686	0.246	
17.100	0.180	0.303	
17.105	-0.018	0.323	
17.110	0.480	0.302	
17.115	0.239	0.290	
17.120	-0.180	0.267	
17.125	0.064	0.204	
17.130	0.178	0.141	
17.135	-0.241	0.092	
17.140	-0.148	0.030	
17.145	0.174	-0.022	
17.150	-0.149	-0.042	
17.155	-0.235	-0.060	
17.160	0.163	-0.079	
17.165	0.027	-0.069	
17.170	-0.210	-0.050	
17.175	0.177	-0.042	
17.180	0.474	-0.002	
17.185	-0.018	0.069	
17.190	0.142	0.118	
17.195	0.564	0.159	
17.200	0.088	0.212	
17.205	-0.073	0.230	
17.210	0.395	0.212	
17.215	0.218	0.207	
17.220	-0.148	0.198	
17.225	0.210	0.163	
17.230	0.373	0.146	
17.235	-0.119	0.149	
17.240	-0.024	0.128	
17.245	0.399	0.105	
17.250	-0.034	0.108	
17.255	-0.149	0.098	
17.260	0.280	0.073	
17.265	0.097	0.071	
17.270	-0.233	0.067	
17.275	0.041	0.038	
17.280	0.248	0.021	
17.285	-0.117	0.029	
17.290	0.053	0.030	
17.295	0.552	0.050	
17.300	0.122	0.110	
17.305	-0.041	0.154	
17.310	0.480	0.171	
17.315	0.325	0.205	
17.320	-0.095	0.232	
17.325	0.221	0.219	
17.330	0.380	0.205	
17.335	-0.111	0.201	
17.340	-0.040	0.167	
17.345	0.338	0.127	
17.350	-0.078	0.109	
17.355	-0.206	0.079	
17.360	0.148	0.034	
17.365	0.001	0.010	
17.370	-0.268	-0.009	
17.375	-0.040	-0.044	
17.380	0.081	-0.065	
17.385	-0.270	-0.070	
17.390	-0.191	-0.090	
17.395	0.101	-0.108	
17.400	-0.191	-0.106	
17.405	-0.297	-0.112	
17.410	0.011	-0.130	
17.415	-0.072	-0.131	
17.420	-0.305	-0.127	
17.425	-0.087	-0.138	
17.430	0.043	-0.137	
17.435	-0.279	-0.125	
17.440	-0.203	-0.129	
17.445	0.117	-0.133	
17.450	-0.171	-0.117	
17.455	-0.273	-0.111	
17.460	0.040	-0.118	
17.465	-0.058	-0.112	
17.470	-0.299	-0.105	
17.475	-0.047	-0.115	
17.480	0.114	-0.112	
17.485	-0.249	-0.092	
17.490	-0.178	-0.092	
17.495	0.145	-0.096	
17.500	-0.160	-0.082	
17.505	-0.270	-0.081	
17.510	0.049	-0.096	
17.515	-0.055	-0.096	
17.520	-0.303	-0.095	
17.525	-0.069	-0.111	
17.530	0.090	-0.114	
17.535	-0.255	-0.101	
17.540	-0.188	-0.104	
17.545	0.117	-0.110	
17.550	-0.177	-0.099	
17.555	-0.284	-0.099	
17.560	0.029	-0.114	
17.565	-0.078	-0.114	
17.570	-0.311	-0.113	
17.575	-0.038	-0.126	
17.580	0.218	-0.117	
17.585	-0.125	-0.078	
17.590	-0.002	-0.046	
17.595	0.405	-0.009	
17.600	-0.063	0.045	
17.605	-0.220	0.066	
17.610	0.107	0.046	
17.615	-0.032	0.026	
17.620	-0.302	-0.001	
17.625	-0.063	-0.046	
17.630	0.113	-0.074	
17.635	-0.242	-0.078	
17.640	-0.177	-0.091	
17.645	0.136	-0.102	
17.650	-0.143	-0.091	
17.655	-0.229	-0.086	
17.660	0.198	-0.086	
17.665	0.116	-0.057	
17.670	-0.182	-0.021	
17.675	0.125	-0.005	
17.680	0.326	0.022	
17.685	-0.125	0.061	
17.690	-0.038	0.071	
17.695	0.392	0.072	
17.700	-0.020	0.092	
17.705	-0.154	0.094	
17.710	0.258	0.075	
17.715	0.119	0.073	
17.720	-0.195	0.073	
17.725	0.088	0.051	
17.730	0.288	0.043	
17.735	-0.151	0.055	
17.740	-0.067	0.047	
17.745	0.361	0.038	
17.750	-0.018	0.056	
17.755	-0.145	0.063	
17.760	0.280	0.053	
17.765	0.143	0.064	
17.770	-0.188	0.076	
17.775	0.123	0.062	
17.780	0.326	0.062	
17.785	-0.146	0.079	
17.790	-0.093	0.071	
17.795	0.250	0.049	
17.800	-0.140	0.042	
17.805	-0.267	0.017	
17.810	0.068	-0.026	
17.815	-0.069	-0.052	
17.820	-0.343	-0.074	
17.825	-0.119	-0.112	
17.830	0.015	-0.135	
17.835	-0.290	-0.140	
17.840	-0.195	-0.151	
17.845	0.155	-0.153	
17.850	-0.146	-0.127	
17.855	-0.249	-0.109	
17.860	0.125	-0.104	
17.865	0.029	-0.081	
17.870	-0.246	-0.057	
17.875	0.001	-0.056	
17.880	0.195	-0.048	
17.885	-0.215	-0.027	
17.890	-0.149	-0.029	
17.895	0.186	-0.040	
17.900	-0.143	-0.034	
17.905	-0.261	-0.042	
17.910	0.110	-0.064	
17.915	-0.008	-0.065	
17.920	-0.288	-0.062	
17.925	-0.031	-0.078	
17.930	0.165	-0.080	
17.935	-0.233	-0.063	
17.940	-0.175	-0.065	
17.945	0.126	-0.075	
17.950	-0.197	-0.072	
17.955	-0.319	-0.084	
17.960	-0.009	-0.113	
17.965	-0.101	-0.127	
17.970	-0.354	-0.136	
17.975	-0.107	-0.158	
17.980	0.107	-0.161	
17.985	-0.224	-0.138	
17.990	-0.078	-0.121	
17.995	0.431	-0.087	
18.000	-0.034	-0.020	
18.005	-0.191	0.024	
18.010	0.178	0.031	
18.015	-0.011	0.036	
18.020	-0.308	0.024	
18.025	-0.060	-0.017	
18.030	0.161	-0.047	
18.035	-0.215	-0.051	
18.040	-0.131	-0.061	
18.045	0.276	-0.065	
18.050	-0.089	-0.039	
18.055	-0.203	-0.024	
18.060	0.229	-0.025	
18.065	0.094	-0.004	
18.070	-0.230	0.015	
18.075	0.065	0.008	
18.080	0.276	0.011	
18.085	-0.177	0.031	
18.090	-0.076	0.028	
18.095	0.404	0.025	
18.100	-0.037	0.051	
18.105	-0.154	0.062	
18.110	0.320	0.055	
18.115	0.186	0.073	
18.120	-0.175	0.092	
18.125	0.200	0.086	
18.130	0.457	0.098	
18.135	-0.078	0.134	
18.140	0.050	0.143	
18.145	0.561	0.148	
18.150	0.099	0.182	
18.155	-0.075	0.197	
18.160	0.486	0.188	
18.165	0.367	0.207	
18.170	-0.082	0.231	
18.175	0.314	0.224	
18.180	0.489	0.227	
18.185	-0.084	0.242	
18.190	0.012	0.220	
18.195	0.462	0.188	
18.200	-0.044	0.178	
18.205	-0.198	0.148	
18.210	0.238	0.097	
18.215	0.049	0.069	
18.220	-0.273	0.045	
18.225	0.029	0.004	
18.230	0.215	-0.017	
18.235	-0.276	-0.016	
18.240	-0.220	-0.038	
18.245	0.058	-0.072	
18.250	-0.306	-0.095	
18.255	-0.436	-0.134	
18.260	-0.120	-0.188	
18.265	-0.227	-0.222	
18.270	-0.483	-0.247	
18.275	-0.192	-0.277	
18.280	-0.041	-0.283	
18.285	-0.383	-0.264	
18.290	-0.267	-0.255	
18.295	0.097	-0.242	
18.300	-0.232	-0.205	
18.305	-0.332	-0.181	
18.310	0.076	-0.173	
18.315	-0.046	-0.148	
18.320	-0.332	-0.125	
18.325	-0.032	-0.124	
18.330	0.184	-0.111	
18.335	-0.247	-0.080	
18.340	-0.131	-0.070	
18.345	0.340	-0.060	
18.350	-0.108	-0.024	
18.355	-0.223	-0.006	
18.360	0.270	-0.009	
18.365	0.110	0.010	
18.370	-0.239	0.030	
18.375	0.123	0.022	
18.380	0.364	0.032	
18.385	-0.139	0.064	
18.390	0.046	0.073	
18.395	0.677	0.094	
18.400	0.212	0.161	
18.405	-0.044	0.213	
18.410	0.498	0.228	
18.415	0.259	0.249	
18.420	-0.192	0.252	
18.425	0.157	0.208	
18.430	0.383	0.171	
18.435	-0.156	0.157	
18.440	-0.049	0.122	
18.445	0.454	0.092	
18.450	-0.017	0.099	
18.455	-0.143	0.097	
18.460	0.425	0.083	
18.465	0.250	0.106	
18.470	-0.172	0.132	
18.475	0.213	0.126	
18.480	0.444	0.132	
18.485	-0.114	0.156	
18.490	0.004	0.149	
18.495	0.540	0.138	
18.500	0.058	0.160	
18.505	-0.099	0.167	
18.510	0.471	0.155	
18.515	0.305	0.173	
18.520	-0.133	0.194	
18.525	0.273	0.183	
18.530	0.477	0.185	
18.535	-0.099	0.204	
18.540	0.038	0.190	
18.545	0.575	0.174	
18.550	0.078	0.192	
18.555	-0.089	0.195	
18.560	0.488	0.179	
18.565	0.309	0.193	
18.570	-0.148	0.208	
18.575	0.267	0.190	
18.580	0.515	0.188	
18.585	-0.069	0.209	
18.590	0.046	0.200	
18.595	0.569	0.186	
18.600	0.049	0.202	
18.605	-0.113	0.198	
18.610	0.437	0.171	
18.615	0.265	0.174	
18.620	-0.159	0.181	
18.625	0.238	0.159	
18.630	0.479	0.156	
18.635	-0.110	0.176	
18.640	-0.012	0.164	
18.645	0.515	0.146	
18.650	0.017	0.158	
18.655	-0.140	0.153	
18.660	0.386	0.128	
18.665	0.255	0.133	
18.670	-0.128	0.147	
18.675	0.337	0.141	
18.680	0.599	0.166	
18.685	-0.015	0.217	
18.690	0.099	0.233	
18.695	0.588	0.234	
18.700	0.076	0.253	
18.705	-0.108	0.245	
18.710	0.399	0.208	
18.715	0.215	0.193	
18.720	-0.204	0.179	
18.725	0.102	0.135	
18.730	0.325	0.103	
18.735	-0.171	0.095	
18.740	-0.075	0.070	
18.745	0.437	0.050	
18.750	0.000	0.067	
18.755	-0.143	0.077	
18.760	0.372	0.072	
18.765	0.247	0.095	
18.770	-0.177	0.121	
18.775	0.175	0.114	
18.780	0.524	0.122	
18.785	0.044	0.162	
18.790	0.297	0.194	
18.795	0.966	0.248	
18.800	0.643	0.361	
18.805	0.370	0.471	
18.810	0.918	0.545	
18.815	0.773	0.618	
18.820	0.241	0.664	
18.825	0.652	0.653	
18.830	0.892	0.639	
18.835	0.282	0.640	
18.840	0.326	0.604	
18.845	0.774	0.554	
18.850	0.338	0.529	
18.855	0.151	0.493	
18.860	0.784	0.450	
18.865	0.713	0.458	
18.870	0.203	0.489	
18.875	0.617	0.494	
18.880	0.822	0.509	
18.885	0.251	0.539	
18.890	0.404	0.534	
18.895	0.951	0.525	
18.900	0.646	0.561	
18.905	0.387	0.596	
18.910	0.863	0.609	
18.915	0.732	0.634	
18.920	0.194	0.645	
18.925	0.518	0.608	
18.930	0.736	0.568	
18.935	0.174	0.543	
18.940	0.206	0.490	
18.945	0.639	0.430	
18.950	0.251	0.401	
18.955	-0.017	0.365	
18.960	0.419	0.309	
18.965	0.312	0.277	
18.970	-0.110	0.253	
18.975	0.137	0.205	
18.980	0.357	0.168	
18.985	-0.113	0.153	
18.990	-0.102	0.118	
18.995	0.245	0.076	
19.000	-0.064	0.056	
19.005	-0.212	0.032	
19.010	0.062	-0.006	
19.015	0.009	-0.027	
19.020	-0.262	-0.041	
19.025	-0.070	-0.067	
19.030	0.137	-0.080	
19.035	-0.191	-0.071	
19.040	-0.151	-0.071	
19.045	0.195	-0.072	
19.050	-0.089	-0.053	
19.055	-0.244	-0.043	
19.060	0.068	-0.054	
19.065	0.024	-0.054	
19.070	-0.273	-0.050	
19.075	-0.107	-0.069	
19.080	0.046	-0.085	
19.085	-0.253	-0.090	
19.090	-0.241	-0.108	
19.095	0.021	-0.130	
19.100	-0.198	-0.135	
19.105	-0.354	-0.146	
19.110	-0.102	-0.171	
19.115	-0.136	-0.184	
19.120	-0.380	-0.191	
19.125	-0.209	-0.210	
19.130	-0.081	-0.221	
19.135	-0.349	-0.219	
19.140	-0.337	-0.229	
19.145	-0.102	-0.244	
19.150	-0.281	-0.244	
19.155	-0.413	-0.249	
19.160	-0.151	-0.263	
19.165	-0.169	-0.262	
19.170	-0.396	-0.255	
19.175	-0.217	-0.258	
19.180	-0.095	-0.255	
19.185	-0.363	-0.242	
19.190	-0.328	-0.244	
19.195	-0.044	-0.249	
19.200	-0.172	-0.232	
19.205	-0.239	-0.210	
19.210	0.186	-0.182	
19.215	0.139	-0.122	
19.220	-0.224	-0.059	
19.225	-0.099	-0.036	
19.230	0.012	-0.037	
19.235	-0.293	-0.048	
19.240	-0.279	-0.083	
19.245	-0.021	-0.126	
19.250	-0.215	-0.148	
19.255	-0.351	-0.169	
19.260	-0.079	-0.194	
19.265	-0.096	-0.198	
19.270	-0.340	-0.192	
19.275	-0.162	-0.197	
19.280	0.001	-0.193	
19.285	-0.274	-0.176	
19.290	-0.229	-0.171	
19.295	0.068	-0.167	
19.300	-0.160	-0.146	
19.305	-0.303	-0.135	
19.310	-0.012	-0.140	
19.315	-0.027	-0.133	
19.320	-0.293	-0.122	
19.325	-0.108	-0.127	
19.330	0.087	-0.126	
19.335	-0.235	-0.110	
19.340	-0.207	-0.109	
19.345	0.140	-0.112	
19.350	-0.098	-0.094	
19.355	-0.242	-0.081	
19.360	0.076	-0.084	
19.365	0.044	-0.071	
19.370	-0.246	-0.056	
19.375	-0.047	-0.061	
19.380	0.154	-0.061	
19.385	-0.217	-0.047	
19.390	-0.207	-0.054	
19.395	0.084	-0.073	
19.400	-0.153	-0.078	
19.405	-0.323	-0.091	
19.410	-0.056	-0.120	
19.415	-0.070	-0.135	
19.420	-0.348	-0.143	
19.425	-0.172	-0.164	
19.430	-0.005	-0.176	
19.435	-0.285	-0.171	
19.440	-0.265	-0.176	
19.445	0.006	-0.183	
19.450	-0.207	-0.174	
19.455	-0.345	-0.172	
19.460	-0.040	-0.183	
19.465	-0.032	-0.175	
19.470	-0.296	-0.158	
19.475	-0.093	-0.153	
19.480	0.151	-0.138	
19.485	-0.213	-0.105	
19.490	-0.185	-0.091	
19.495	0.183	-0.086	
19.500	-0.096	-0.063	
19.505	-0.249	-0.052	
19.510	0.078	-0.061	
19.515	0.037	-0.057	
19.520	-0.259	-0.049	
19.525	-0.070	-0.062	
19.530	0.155	-0.068	
19.535	-0.209	-0.057	
19.540	-0.206	-0.063	
19.545	0.123	-0.077	
19.550	-0.139	-0.074	
19.555	-0.290	-0.080	
19.560	0.018	-0.100	
19.565	-0.014	-0.104	
19.570	-0.288	-0.100	
19.575	-0.090	-0.111	
19.580	0.126	-0.112	
19.585	-0.233	-0.095	
19.590	-0.209	-0.094	
19.595	0.087	-0.103	
19.600	-0.194	-0.098	
19.605	-0.331	-0.107	
19.610	-0.006	-0.132	
19.615	-0.009	-0.136	
19.620	-0.268	-0.126	
19.625	-0.084	-0.127	
19.630	0.037	-0.123	
19.635	-0.346	-0.114	
19.640	-0.358	-0.136	
19.645	-0.142	-0.177	
19.650	-0.374	-0.211	
19.655	-0.534	-0.255	
19.660	-0.247	-0.307	
19.665	-0.267	-0.336	
19.670	-0.514	-0.348	
19.675	-0.293	-0.363	
19.680	-0.142	-0.360	
19.685	-0.436	-0.339	
19.690	-0.401	-0.332	
19.695	-0.111	-0.329	
19.700	-0.310	-0.310	
19.705	-0.433	-0.297	
19.710	-0.114	-0.295	
19.715	-0.136	-0.277	
19.720	-0.389	-0.252	
19.725	-0.146	-0.243	
19.730	0.070	-0.221	
19.735	-0.296	-0.184	
19.740	-0.250	-0.167	
19.745	0.088	-0.161	
19.750	-0.212	-0.141	
19.755	-0.383	-0.139	
19.760	-0.098	-0.161	
19.765	-0.180	-0.178	
19.770	-0.485	-0.196	
19.775	-0.285	-0.236	
19.780	-0.151	-0.267	
19.785	-0.506	-0.284	
19.790	-0.485	-0.316	
19.795	-0.221	-0.351	
19.800	-0.457	-0.368	
19.805	-0.601	-0.388	
19.810	-0.271	-0.416	
19.815	-0.296	-0.419	
19.820	-0.544	-0.408	
19.825	-0.287	-0.405	
19.830	-0.087	-0.384	
19.835	-0.378	-0.341	
19.840	-0.303	-0.310	
19.845	0.085	-0.279	
19.850	-0.189	-0.228	
19.855	-0.313	-0.188	
19.860	0.117	-0.166	
19.865	0.084	-0.124	
19.870	-0.256	-0.079	
19.875	0.107	-0.058	
19.880	0.466	-0.017	
19.885	-0.081	0.051	
19.890	0.024	0.090	
19.895	0.639	0.120	
19.900	0.230	0.184	
19.905	-0.014	0.231	
19.910	0.630	0.250	
19.915	0.578	0.297	
19.920	0.023	0.349	
19.925	0.477	0.361	
19.930	0.785	0.381	
19.935	0.137	0.422	
19.940	0.218	0.423	
19.945	0.800	0.409	
19.950	0.349	0.426	
19.955	0.021	0.426	
19.960	0.671	0.397	
19.965	0.634	0.401	
19.970	0.011	0.419	
19.975	0.436	0.401	
19.980	0.753	0.394	
19.985	0.116	0.412	
19.990	0.223	0.401	
19.995	0.799	0.384	
20.000	0.320	0.404	
20.005	-0.014	0.405	
20.010	0.608	0.372	
20.015	0.582	0.370	
20.020	0.056	0.385	
20.025	0.579	0.380	
20.030	0.977	0.408	
20.035	0.302	0.478	
20.040	0.285	0.510	
20.045	0.809	0.509	
20.050	0.308	0.517	
20.055	-0.047	0.489	
20.060	0.521	0.419	
20.065	0.459	0.374	
20.070	-0.081	0.346	
20.075	0.340	0.297	
20.080	0.655	0.277	
20.085	0.017	0.292	
20.090	0.087	0.282	
20.095	0.677	0.265	
20.100	0.258	0.286	
20.105	-0.032	0.297	
20.110	0.588	0.284	
20.115	0.520	0.302	
20.120	-0.053	0.327	
20.125	0.370	0.316	
20.130	0.687	0.315	
20.135	0.026	0.339	
20.140	0.058	0.324	
20.145	0.633	0.293	
20.150	0.189	0.293	
20.155	-0.093	0.282	
20.160	0.482	0.246	
20.165	0.424	0.243	
20.170	-0.107	0.253	
20.175	0.276	0.234	
20.180	0.601	0.229	
20.185	-0.017	0.252	
20.190	0.041	0.245	
20.195	0.607	0.227	
20.200	0.169	0.242	
20.205	-0.101	0.244	
20.210	0.441	0.218	
20.215	0.395	0.220	
20.220	-0.116	0.231	
20.225	0.227	0.212	
20.230	0.540	0.204	
20.235	-0.047	0.221	
20.240	-0.018	0.208	
20.245	0.530	0.184	
20.250	0.111	0.191	
20.255	-0.131	0.188	
20.260	0.370	0.162	
20.265	0.328	0.163	
20.270	-0.153	0.173	
20.275	0.142	0.154	
20.280	0.453	0.143	
20.285	-0.092	0.155	
20.290	-0.050	0.143	
20.295	0.514	0.125	
20.300	0.101	0.143	
20.305	-0.139	0.152	
20.310	0.407	0.139	
20.315	0.337	0.154	
20.320	-0.151	0.175	
20.325	0.163	0.163	
20.330	0.494	0.157	
20.335	-0.104	0.174	
20.340	-0.078	0.160	
20.345	0.448	0.132	
20.350	0.017	0.132	
20.355	-0.201	0.121	
20.360	0.273	0.088	
20.365	0.242	0.083	
20.370	-0.203	0.090	
20.375	0.035	0.071	
20.380	0.346	0.059	
20.385	-0.160	0.068	
20.390	-0.136	0.055	
20.395	0.376	0.036	
20.400	-0.027	0.047	
20.405	-0.230	0.048	
20.410	0.218	0.027	
20.415	0.163	0.029	
20.420	-0.236	0.039	
20.425	0.050	0.024	
20.430	0.441	0.027	
20.435	-0.050	0.064	
20.440	0.017	0.087	
20.445	0.570	0.107	
20.450	0.079	0.155	
20.455	-0.198	0.174	
20.460	0.204	0.146	
20.465	0.148	0.122	
20.470	-0.252	0.099	
20.475	-0.012	0.053	
20.480	0.326	0.022	
20.485	-0.166	0.025	
20.490	-0.157	0.014	
20.495	0.466	0.006	
20.500	0.366	0.053	
20.505	0.267	0.134	
20.510	1.023	0.238	
20.515	1.085	0.402	
20.520	0.534	0.580	
20.525	0.913	0.702	
20.530	1.213	0.798	
20.535	0.535	0.876	
20.540	0.503	0.881	
20.545	1.078	0.842	
20.550	0.687	0.822	
20.555	0.296	0.787	
20.560	0.855	0.723	
20.565	0.811	0.688	
20.570	0.168	0.666	
20.575	0.466	0.607	
20.580	0.741	0.550	
20.585	0.097	0.516	
20.590	0.056	0.449	
20.595	0.562	0.369	
20.600	0.163	0.324	
20.605	-0.102	0.278	
20.610	0.418	0.221	
20.615	0.428	0.206	
20.620	-0.082	0.216	
20.625	0.213	0.203	
20.630	0.546	0.200	
20.635	-0.043	0.220	
20.640	-0.063	0.207	
20.645	0.390	0.173	
20.650	0.000	0.158	
20.655	-0.229	0.128	
20.660	0.133	0.075	
20.665	0.087	0.041	
20.670	-0.282	0.018	
20.675	-0.096	-0.024	
20.680	0.177	-0.053	
20.685	-0.220	-0.056	
20.690	-0.232	-0.070	
20.695	0.123	-0.090	
20.700	-0.130	-0.088	
20.705	-0.297	-0.091	
20.710	0.043	-0.107	
20.715	0.062	-0.102	
20.720	-0.268	-0.086	
20.725	-0.079	-0.087	
20.730	0.192	-0.083	
20.735	-0.215	-0.061	
20.740	-0.218	-0.060	
20.745	0.177	-0.071	
20.750	-0.099	-0.061	
20.755	-0.299	-0.060	
20.760	0.003	-0.080	
20.765	0.008	-0.089	
20.770	-0.322	-0.090	
20.775	-0.157	-0.111	
20.780	0.068	-0.127	
20.785	-0.252	-0.124	
20.790	-0.250	-0.131	
20.795	0.133	-0.139	
20.800	-0.108	-0.122	
20.805	-0.297	-0.108	
20.810	0.024	-0.113	
20.815	0.035	-0.104	
20.820	-0.291	-0.090	
20.825	-0.102	-0.096	
20.830	0.232	-0.094	
20.835	-0.143	-0.065	
20.840	-0.093	-0.046	
20.845	0.474	-0.021	
20.850	0.134	0.040	
20.855	-0.168	0.090	
20.860	0.168	0.096	
20.865	0.113	0.094	
20.870	-0.281	0.081	
20.875	-0.111	0.034	
20.880	0.155	-0.012	
20.885	-0.218	-0.033	
20.890	-0.227	-0.060	
20.895	0.149	-0.087	
20.900	-0.096	-0.085	
20.905	-0.274	-0.083	
20.910	0.049	-0.094	
20.915	0.055	-0.088	
20.920	-0.291	-0.075	
20.925	-0.133	-0.085	
20.930	0.139	-0.094	
20.935	-0.227	-0.084	
20.940	-0.241	-0.090	
20.945	0.107	-0.104	
20.950	-0.114	-0.098	
20.955	-0.305	-0.097	
20.960	0.004	-0.112	
20.965	0.055	-0.109	
20.970	-0.242	-0.094	
20.975	-0.032	-0.090	
20.980	0.351	-0.070	
20.985	-0.111	-0.021	
20.990	-0.128	0.007	
20.995	0.332	0.017	
21.000	0.026	0.046	
21.005	-0.201	0.059	
21.010	0.172	0.046	
21.015	0.203	0.047	
21.020	-0.207	0.055	
21.025	-0.044	0.038	
21.030	0.280	0.021	
21.035	-0.154	0.026	
21.040	-0.198	0.013	
21.045	0.169	-0.013	
21.050	-0.087	-0.021	
21.055	-0.294	-0.035	
21.060	0.012	-0.066	
21.065	0.043	-0.080	
21.070	-0.288	-0.080	
21.075	-0.114	-0.096	
21.080	0.169	-0.102	
21.085	-0.204	-0.085	
21.090	-0.223	-0.082	
21.095	0.146	-0.089	
21.100	-0.084	-0.077	
21.105	-0.267	-0.070	
21.110	0.084	-0.078	
21.115	0.136	-0.066	
21.120	-0.236	-0.043	
21.125	-0.060	-0.041	
21.130	0.279	-0.037	
21.135	-0.146	-0.011	
21.140	-0.172	-0.005	
21.145	0.242	-0.013	
21.150	-0.032	-0.001	
21.155	-0.252	0.001	
21.160	0.044	-0.020	
21.165	0.084	-0.031	
21.170	-0.271	-0.033	
21.175	-0.104	-0.054	
21.180	0.186	-0.068	
21.185	-0.198	-0.059	
21.190	-0.210	-0.063	
21.195	0.178	-0.074	
21.200	-0.073	-0.062	
21.205	-0.276	-0.056	
21.210	0.044	-0.070	
21.215	0.108	-0.067	
21.220	-0.241	-0.053	
21.225	-0.096	-0.057	
21.230	0.171	-0.061	
21.235	-0.218	-0.051	
21.240	-0.247	-0.060	
21.245	0.140	-0.080	
21.250	-0.043	-0.075	
21.255	-0.195	-0.065	
21.260	0.261	-0.057	
21.265	0.285	-0.014	
21.270	-0.206	0.039	
21.275	-0.093	0.047	
21.280	0.166	0.032	
21.285	-0.221	0.020	
21.290	-0.250	-0.014	
21.295	0.101	-0.057	
21.300	-0.104	-0.075	
21.305	-0.291	-0.088	
21.310	0.043	-0.108	
21.315	0.105	-0.102	
21.320	-0.250	-0.081	
21.325	-0.070	-0.077	
21.330	0.282	-0.065	
21.335	-0.131	-0.031	
21.340	-0.148	-0.014	
21.345	0.331	-0.008	
21.350	0.037	0.022	
21.355	-0.191	0.043	
21.360	0.206	0.038	
21.365	0.271	0.052	
21.370	-0.163	0.076	
21.375	0.037	0.073	
21.380	0.412	0.073	
21.385	-0.072	0.096	
21.390	-0.089	0.098	
21.395	0.430	0.089	
21.400	0.140	0.110	
21.405	-0.128	0.127	
21.410	0.314	0.121	
21.415	0.367	0.136	
21.420	-0.124	0.161	
21.425	0.097	0.153	
21.430	0.491	0.147	
21.435	-0.005	0.167	
21.440	-0.040	0.166	
21.445	0.459	0.152	
21.450	0.136	0.164	
21.455	-0.153	0.166	
21.460	0.273	0.141	
21.465	0.332	0.137	
21.470	-0.136	0.146	
21.475	0.059	0.129	
21.480	0.430	0.116	
21.485	-0.073	0.127	
21.490	-0.105	0.118	
21.495	0.381	0.096	
21.500	0.088	0.101	
21.505	-0.160	0.104	
21.510	0.264	0.087	
21.515	0.348	0.096	
21.520	-0.116	0.122	
21.525	0.111	0.122	
21.530	0.463	0.126	
21.535	-0.047	0.151	
21.540	-0.073	0.148	
21.545	0.441	0.131	
21.550	0.140	0.142	
21.555	-0.154	0.148	
21.560	0.250	0.127	
21.565	0.271	0.122	
21.570	-0.197	0.124	
21.575	-0.040	0.095	
21.580	0.274	0.063	
21.585	-0.183	0.051	
21.590	-0.226	0.021	
21.595	0.145	-0.021	
21.600	-0.101	-0.039	
21.605	-0.314	-0.058	
21.610	-0.040	-0.092	
21.615	-0.035	-0.111	
21.620	-0.375	-0.123	
21.625	-0.236	-0.153	
21.630	-0.024	-0.180	
21.635	-0.332	-0.188	
21.640	-0.364	-0.206	
21.645	-0.066	-0.229	
21.650	-0.242	-0.232	
21.655	-0.424	-0.236	
21.660	-0.099	-0.249	
21.665	0.003	-0.238	
21.670	-0.256	-0.205	
21.675	-0.053	-0.177	
21.680	0.253	-0.135	
21.685	-0.210	-0.079	
21.690	-0.267	-0.057	
21.695	0.047	-0.067	
21.700	-0.169	-0.076	
21.705	-0.395	-0.098	
21.710	-0.111	-0.140	
21.715	-0.078	-0.167	
21.720	-0.393	-0.180	
21.725	-0.223	-0.203	
21.730	0.035	-0.214	
21.735	-0.290	-0.201	
21.740	-0.320	-0.197	
21.745	-0.020	-0.202	
21.750	-0.239	-0.195	
21.755	-0.489	-0.202	
21.760	-0.249	-0.235	
21.765	-0.259	-0.266	
21.770	-0.592	-0.294	
21.775	-0.460	-0.342	
21.780	-0.302	-0.386	
21.785	-0.610	-0.414	
21.790	-0.634	-0.450	
21.795	-0.337	-0.487	
21.800	-0.476	-0.498	
21.805	-0.656	-0.501	
21.810	-0.358	-0.509	
21.815	-0.302	-0.496	
21.820	-0.564	-0.469	
21.825	-0.363	-0.452	
21.830	-0.114	-0.424	
21.835	-0.375	-0.377	
21.840	-0.369	-0.342	
21.845	0.001	-0.312	
21.850	-0.165	-0.265	
21.855	-0.361	-0.224	
21.860	-0.011	-0.204	
21.865	0.082	-0.171	
21.870	-0.294	-0.129	
21.875	-0.096	-0.113	
21.880	0.277	-0.093	
21.885	-0.172	-0.054	
21.890	-0.177	-0.035	
21.895	0.354	-0.028	
21.900	0.056	0.008	
21.905	-0.207	0.036	
21.910	0.261	0.039	
21.915	0.348	0.063	
21.920	-0.162	0.101	
21.925	0.096	0.106	
21.930	0.448	0.111	
21.935	-0.108	0.134	
21.940	-0.124	0.125	
21.945	0.456	0.103	
21.950	0.171	0.117	
21.955	-0.127	0.133	
21.960	0.419	0.132	
21.965	0.492	0.163	
21.970	-0.079	0.209	
21.975	0.216	0.218	
21.980	0.652	0.229	
21.985	0.082	0.266	
21.990	0.003	0.273	
21.995	0.588	0.257	
22.000	0.264	0.269	
22.005	-0.102	0.271	
22.010	0.427	0.245	
22.015	0.479	0.244	
22.020	-0.089	0.258	
22.025	0.175	0.239	
22.030	0.573	0.224	
22.035	-0.008	0.236	
22.040	-0.050	0.222	
22.045	0.527	0.193	
22.050	0.223	0.200	
22.055	-0.137	0.205	
22.060	0.354	0.184	
22.065	0.437	0.186	
22.070	-0.087	0.205	
22.075	0.253	0.201	
22.080	0.770	0.216	
22.085	0.250	0.278	
22.090	0.165	0.324	
22.095	0.692	0.345	
22.100	0.291	0.376	
22.105	-0.114	0.376	
22.110	0.355	0.326	
22.115	0.399	0.287	
22.120	-0.136	0.262	
22.125	0.102	0.212	
22.130	0.529	0.176	
22.135	-0.049	0.177	
22.140	-0.098	0.160	
22.145	0.430	0.131	
22.150	0.101	0.132	
22.155	-0.188	0.129	
22.160	0.262	0.103	
22.165	0.346	0.103	
22.170	-0.168	0.120	
22.175	0.011	0.107	
22.180	0.433	0.094	
22.185	-0.073	0.108	
22.190	-0.110	0.103	
22.195	0.434	0.088	
22.200	0.128	0.105	
22.205	-0.178	0.118	
22.210	0.287	0.105	
22.215	0.381	0.115	
22.220	-0.133	0.141	
22.225	0.114	0.138	
22.230	0.569	0.142	
22.235	0.033	0.177	
22.240	-0.037	0.189	
22.245	0.546	0.184	
22.250	0.259	0.208	
22.255	-0.110	0.225	
22.260	0.402	0.213	
22.265	0.488	0.222	
22.270	-0.087	0.245	
22.275	0.148	0.232	
22.280	0.555	0.219	
22.285	-0.006	0.229	
22.290	-0.067	0.214	
22.295	0.485	0.183	
22.300	0.174	0.184	
22.305	-0.151	0.181	
22.310	0.300	0.155	
22.315	0.372	0.151	
22.320	-0.139	0.163	
22.325	0.068	0.146	
22.330	0.477	0.133	
22.335	-0.058	0.147	
22.340	-0.099	0.138	
22.345	0.447	0.117	
22.350	0.152	0.129	
22.355	-0.162	0.138	
22.360	0.320	0.124	
22.365	0.401	0.135	
22.370	-0.130	0.161	
22.375	0.076	0.154	
22.380	0.503	0.147	
22.385	-0.018	0.165	
22.390	-0.050	0.163	
22.395	0.543	0.151	
22.400	0.236	0.176	
22.405	-0.119	0.197	
22.410	0.372	0.188	
22.415	0.477	0.200	
22.420	-0.099	0.225	
22.425	0.133	0.215	
22.430	0.559	0.204	
22.435	0.012	0.219	
22.440	-0.064	0.210	
22.445	0.460	0.183	
22.450	0.175	0.183	
22.455	-0.140	0.181	
22.460	0.361	0.158	
22.465	0.471	0.166	
22.470	-0.076	0.196	
22.475	0.171	0.197	
22.480	0.655	0.204	
22.485	0.215	0.248	
22.490	0.224	0.284	
22.495	0.944	0.324	
22.500	0.703	0.413	
22.505	0.183	0.498	
22.510	0.640	0.526	
22.515	0.691	0.543	
22.520	0.090	0.548	
22.525	0.390	0.508	
22.530	0.870	0.474	
22.535	0.364	0.486	
22.540	0.279	0.488	
22.545	0.886	0.483	
22.550	0.745	0.520	
22.555	0.509	0.575	
22.560	1.264	0.636	
22.565	1.546	0.760	
22.570	1.047	0.930	
22.575	1.255	1.068	
22.580	1.604	1.176	
22.585	1.021	1.266	
22.590	0.809	1.282	
22.595	1.241	1.232	
22.600	0.852	1.171	
22.605	0.299	1.075	
22.610	0.707	0.929	
22.615	0.706	0.797	
22.620	0.026	0.684	
22.625	0.177	0.545	
22.630	0.535	0.419	
22.635	0.006	0.337	
22.640	-0.061	0.257	
22.645	0.451	0.186	
22.650	0.219	0.165	
22.655	-0.117	0.160	
22.660	0.262	0.140	
22.665	0.341	0.138	
22.670	-0.159	0.148	
22.675	-0.063	0.124	
22.680	0.209	0.086	
22.685	-0.188	0.059	
22.690	-0.273	0.015	
22.695	0.027	-0.043	
22.700	-0.142	-0.079	
22.705	-0.378	-0.112	
22.710	-0.128	-0.155	
22.715	-0.075	-0.180	
22.720	-0.374	-0.189	
22.725	-0.265	-0.209	
22.730	-0.049	-0.224	
22.735	-0.329	-0.222	
22.740	-0.389	-0.231	
22.745	-0.124	-0.249	
22.750	-0.249	-0.253	
22.755	-0.453	-0.258	
22.760	-0.201	-0.275	
22.765	-0.133	-0.278	
22.770	-0.424	-0.270	
22.775	-0.305	-0.275	
22.780	-0.072	-0.278	
22.785	-0.340	-0.264	
22.790	-0.399	-0.262	
22.795	-0.108	-0.270	
22.800	-0.218	-0.263	
22.805	-0.447	-0.256	
22.810	-0.212	-0.267	
22.815	-0.157	-0.270	
22.820	-0.453	-0.267	
22.825	-0.331	-0.281	
22.830	-0.113	-0.292	
22.835	-0.372	-0.287	
22.840	-0.416	-0.290	
22.845	-0.122	-0.299	
22.850	-0.250	-0.290	
22.855	-0.453	-0.282	
22.860	-0.172	-0.287	
22.865	-0.099	-0.278	
22.870	-0.387	-0.257	
22.875	-0.264	-0.252	
22.880	-0.031	-0.247	
22.885	-0.305	-0.227	
22.890	-0.355	-0.222	
22.895	-0.034	-0.227	
22.900	-0.128	-0.213	
22.905	-0.308	-0.194	
22.910	0.068	-0.180	
22.915	0.251	-0.137	
22.920	-0.201	-0.073	
22.925	-0.117	-0.040	
22.930	0.133	-0.031	
22.935	-0.226	-0.024	
22.940	-0.294	-0.045	
22.945	0.037	-0.082	
22.950	-0.116	-0.101	
22.955	-0.343	-0.117	
22.960	-0.075	-0.143	
22.965	0.011	-0.152	
22.970	-0.310	-0.145	
22.975	-0.172	-0.151	
22.980	0.169	-0.148	
22.985	-0.194	-0.121	
22.990	-0.258	-0.107	
22.995	0.113	-0.108	
23.000	-0.043	-0.092	
23.005	-0.244	-0.077	
23.010	0.117	-0.075	
23.015	0.276	-0.047	
23.020	-0.148	-0.001	
23.025	0.011	0.021	
23.030	0.456	0.044	
23.035	-0.017	0.088	
23.040	-0.120	0.108	
23.045	0.335	0.101	
23.050	0.114	0.110	
23.055	-0.183	0.111	
23.060	0.166	0.088	
23.065	0.305	0.081	
23.070	-0.148	0.091	
23.075	-0.017	0.079	
23.080	0.380	0.068	
23.085	-0.075	0.081	
23.090	-0.159	0.075	
23.095	0.274	0.053	
23.100	0.064	0.054	
23.105	-0.215	0.052	
23.110	0.090	0.030	
23.115	0.215	0.021	
23.120	-0.203	0.028	
23.125	-0.089	0.013	
23.130	0.268	-0.002	
23.135	-0.137	0.006	
23.140	-0.198	-0.001	
23.145	0.235	-0.018	
23.150	0.055	-0.008	
23.155	-0.218	0.004	
23.160	0.073	-0.005	
23.165	0.201	-0.002	
23.170	-0.206	0.012	
23.175	-0.081	0.003	
23.180	0.297	-0.005	
23.185	-0.108	0.011	
23.190	-0.169	0.012	
23.195	0.253	0.002	
23.200	0.040	0.014	
23.205	-0.220	0.022	
23.210	0.099	0.008	
23.215	0.247	0.011	
23.220	-0.194	0.028	
23.225	-0.070	0.022	
23.230	0.276	0.012	
23.235	-0.128	0.021	
23.240	-0.209	0.013	
23.245	0.184	-0.010	
23.250	-0.018	-0.013	
23.255	-0.262	-0.017	
23.260	0.018	-0.040	
23.265	0.146	-0.048	
23.270	-0.230	-0.039	
23.275	-0.116	-0.047	
23.280	0.268	-0.052	
23.285	-0.113	-0.030	
23.290	-0.188	-0.021	
23.295	0.207	-0.025	
23.300	0.024	-0.011	
23.305	-0.232	-0.001	
23.310	0.081	-0.012	
23.315	0.226	-0.009	
23.320	-0.160	0.012	
23.325	0.084	0.019	
23.330	0.707	0.052	
23.335	0.393	0.146	
23.340	0.270	0.247	
23.345	0.787	0.330	
23.350	0.537	0.420	
23.355	0.014	0.473	
23.360	0.408	0.457	
23.365	0.515	0.426	
23.370	-0.038	0.398	
23.375	0.123	0.336	
23.380	0.512	0.277	
23.385	0.003	0.250	
23.390	-0.098	0.210	
23.395	0.357	0.159	
23.400	0.136	0.139	
23.405	-0.183	0.124	
23.410	0.152	0.091	
23.415	0.282	0.076	
23.420	-0.172	0.080	
23.425	-0.067	0.061	
23.430	0.320	0.041	
23.435	-0.090	0.046	
23.440	-0.169	0.039	
23.445	0.223	0.018	
23.450	0.041	0.020	
23.455	-0.230	0.020	
23.460	0.058	-0.000	
23.465	0.203	-0.006	
23.470	-0.186	0.005	
23.475	-0.072	-0.002	
23.480	0.283	-0.007	
23.485	-0.116	0.010	
23.490	-0.198	0.009	
23.495	0.181	-0.008	
23.500	-0.008	-0.008	
23.505	-0.247	-0.010	
23.510	0.026	-0.031	
23.515	0.148	-0.038	
23.520	-0.227	-0.030	
23.525	-0.136	-0.041	
23.530	0.171	-0.054	
23.535	-0.174	-0.049	
23.540	-0.259	-0.058	
23.545	0.062	-0.080	
23.550	-0.081	-0.087	
23.555	-0.314	-0.093	
23.560	-0.067	-0.114	
23.565	0.038	-0.123	
23.570	-0.276	-0.117	
23.575	-0.189	-0.125	
23.580	0.085	-0.132	
23.585	-0.217	-0.122	
23.590	-0.290	-0.124	
23.595	0.037	-0.137	
23.600	-0.076	-0.132	
23.605	-0.306	-0.124	
23.610	-0.049	-0.132	
23.615	0.091	-0.126	
23.620	-0.241	-0.104	
23.625	-0.146	-0.099	
23.630	0.190	-0.094	
23.635	-0.148	-0.071	
23.640	-0.241	-0.062	
23.645	0.119	-0.070	
23.650	-0.026	-0.062	
23.655	-0.273	-0.056	
23.660	-0.017	-0.070	
23.665	0.116	-0.073	
23.670	-0.255	-0.063	
23.675	-0.177	-0.072	
23.680	0.072	-0.089	
23.685	-0.247	-0.093	
23.690	-0.335	-0.113	
23.695	-0.021	-0.145	
23.700	-0.128	-0.158	
23.705	-0.361	-0.164	
23.710	-0.119	-0.182	
23.715	-0.017	-0.185	
23.720	-0.310	-0.174	
23.725	-0.206	-0.175	
23.730	0.052	-0.175	
23.735	-0.255	-0.158	
23.740	-0.337	-0.158	
23.745	-0.018	-0.172	
23.750	-0.104	-0.169	
23.755	-0.281	-0.160	
23.760	0.047	-0.155	
23.765	0.172	-0.124	
23.770	-0.262	-0.080	
23.775	-0.201	-0.069	
23.780	0.044	-0.080	
23.785	-0.249	-0.087	
23.790	-0.325	-0.110	
23.795	-0.011	-0.143	
23.800	-0.133	-0.155	
23.805	-0.377	-0.163	
23.810	-0.125	-0.183	
23.815	0.030	-0.187	
23.820	-0.303	-0.171	
23.825	-0.207	-0.168	
23.830	0.076	-0.165	
23.835	-0.235	-0.147	
23.840	-0.349	-0.145	
23.845	-0.075	-0.164	
23.850	-0.194	-0.175	
23.855	-0.436	-0.189	
23.860	-0.215	-0.221	
23.865	-0.139	-0.242	
23.870	-0.447	-0.251	
23.875	-0.331	-0.272	
23.880	-0.113	-0.288	
23.885	-0.389	-0.287	
23.890	-0.473	-0.296	
23.895	-0.186	-0.316	
23.900	-0.273	-0.319	
23.905	-0.496	-0.318	
23.910	-0.250	-0.329	
23.915	-0.160	-0.327	
23.920	-0.462	-0.313	
23.925	-0.360	-0.315	
23.930	-0.165	-0.320	
23.935	-0.512	-0.319	
23.940	-0.648	-0.344	
23.945	-0.389	-0.395	
23.950	-0.517	-0.436	
23.955	-0.746	-0.476	
23.960	-0.471	-0.522	
23.965	-0.369	-0.543	
23.970	-0.636	-0.539	
23.975	-0.489	-0.535	
23.980	-0.223	-0.520	
23.985	-0.453	-0.480	
23.990	-0.476	-0.446	
23.995	-0.108	-0.417	
24.000	-0.200	-0.367	
24.005	-0.409	-0.317	
24.010	-0.089	-0.285	
24.015	0.087	-0.239	
24.020	-0.270	-0.181	
24.025	-0.101	-0.145	
24.030	0.364	-0.105	
24.035	-0.085	-0.041	
24.040	-0.160	-0.001	
24.045	0.381	0.018	
24.050	0.200	0.061	
24.055	-0.159	0.100	
24.060	0.314	0.109	
24.065	0.518	0.139	
24.070	-0.047	0.189	
24.075	0.201	0.207	
24.080	0.698	0.226	
24.085	0.192	0.277	
24.090	0.058	0.303	
24.095	0.663	0.305	
24.100	0.439	0.333	
24.105	-0.017	0.356	
24.110	0.530	0.345	
24.115	0.718	0.357	
24.120	0.123	0.394	
24.125	0.328	0.398	
24.130	0.796	0.400	
24.135	0.277	0.428	
24.140	0.120	0.431	
24.145	0.736	0.411	
24.150	0.505	0.422	
24.155	0.015	0.430	
24.160	0.564	0.406	
24.165	0.785	0.408	
24.170	0.210	0.442	
24.175	0.527	0.457	
24.180	1.102	0.489	
24.185	0.526	0.565	
24.190	0.279	0.610	
24.195	0.812	0.607	
24.200	0.534	0.606	
24.205	-0.002	0.581	
24.210	0.491	0.508	
24.215	0.658	0.454	
24.220	0.044	0.429	
24.225	0.274	0.385	
24.230	0.748	0.354	
24.235	0.198	0.364	
24.240	0.020	0.356	
24.245	0.608	0.325	
24.250	0.405	0.326	
24.255	-0.034	0.330	
24.260	0.465	0.308	
24.265	0.608	0.310	
24.270	-0.003	0.331	
24.275	0.197	0.317	
24.280	0.669	0.301	
24.285	0.145	0.315	
24.290	-0.014	0.307	
24.295	0.605	0.280	
24.300	0.407	0.289	
24.305	-0.052	0.303	
24.310	0.445	0.289	
24.315	0.622	0.296	
24.320	-0.002	0.322	
24.325	0.187	0.313	
24.330	0.663	0.299	
24.335	0.143	0.313	
24.340	-0.015	0.305	
24.345	0.576	0.277	
24.350	0.375	0.282	
24.355	-0.078	0.290	
24.360	0.381	0.268	
24.365	0.530	0.264	
24.370	-0.061	0.277	
24.375	0.125	0.257	
24.380	0.611	0.236	
24.385	0.076	0.248	
24.390	-0.069	0.241	
24.395	0.492	0.212	
24.400	0.293	0.215	
24.405	-0.120	0.221	
24.410	0.322	0.200	
24.415	0.565	0.203	
24.420	0.017	0.235	
24.425	0.235	0.246	
24.430	0.733	0.262	
24.435	0.280	0.313	
24.440	0.148	0.347	
24.445	0.758	0.361	
24.450	0.587	0.405	
24.455	0.134	0.447	
24.460	0.654	0.455	
24.465	0.828	0.480	
24.470	0.206	0.519	
24.475	0.408	0.519	
24.480	0.982	0.515	
24.485	0.605	0.556	
24.490	0.523	0.599	
24.495	1.125	0.637	
24.500	0.904	0.708	
24.505	0.348	0.764	
24.510	0.779	0.760	
24.515	0.873	0.746	
24.520	0.197	0.727	
24.525	0.306	0.656	
24.530	0.695	0.570	
24.535	0.140	0.507	
24.540	-0.038	0.425	
24.545	0.454	0.331	
24.550	0.204	0.273	
24.555	-0.183	0.225	
24.560	0.133	0.159	
24.565	0.290	0.114	
24.570	-0.191	0.095	
24.575	-0.122	0.058	
24.580	0.245	0.021	
24.585	-0.116	0.010	
24.590	-0.182	-0.005	
24.595	0.332	-0.018	
24.600	0.213	0.011	
24.605	-0.169	0.050	
24.610	0.091	0.059	
24.615	0.174	0.061	
24.620	-0.270	0.058	
24.625	-0.207	0.020	
24.630	0.058	-0.032	
24.635	-0.241	-0.066	
24.640	-0.352	-0.107	
24.645	-0.052	-0.153	
24.650	-0.145	-0.176	
24.655	-0.380	-0.187	
24.660	-0.134	-0.206	
24.665	-0.018	-0.209	
24.670	-0.323	-0.194	
24.675	-0.220	-0.192	
24.680	0.084	-0.187	
24.685	-0.203	-0.161	
24.690	-0.310	-0.148	
24.695	0.008	-0.152	
24.700	-0.095	-0.144	
24.705	-0.345	-0.138	
24.710	-0.093	-0.149	
24.715	0.030	-0.151	
24.720	-0.290	-0.139	
24.725	-0.197	-0.141	
24.730	0.131	-0.142	
24.735	-0.180	-0.122	
24.740	-0.271	-0.112	
24.745	0.131	-0.114	
24.750	0.099	-0.090	
24.755	-0.145	-0.053	
24.760	0.303	-0.020	
24.765	0.541	0.046	
24.770	-0.002	0.134	
24.775	0.131	0.184	
24.780	0.576	0.213	
24.785	0.102	0.251	
24.790	-0.078	0.257	
24.795	0.419	0.229	
24.800	0.242	0.219	
24.805	-0.148	0.209	
24.810	0.204	0.172	
24.815	0.384	0.152	
24.820	-0.124	0.153	
24.825	-0.049	0.130	
24.830	0.354	0.100	
24.835	-0.049	0.095	
24.840	-0.136	0.081	
24.845	0.389	0.062	
24.850	0.285	0.084	
24.855	-0.093	0.119	
24.860	0.317	0.134	
24.865	0.543	0.166	
24.870	0.014	0.217	
24.875	0.175	0.236	
24.880	0.605	0.247	
24.885	0.137	0.277	
24.890	-0.056	0.278	
24.895	0.407	0.248	
24.900	0.258	0.234	
24.905	-0.130	0.220	
24.910	0.190	0.182	
24.915	0.369	0.158	
24.920	-0.139	0.153	
24.925	-0.104	0.122	
24.930	0.253	0.080	
24.935	-0.107	0.058	
24.940	-0.239	0.028	
24.945	0.064	-0.017	
24.950	-0.058	-0.043	
24.955	-0.316	-0.065	
24.960	-0.096	-0.100	
24.965	0.038	-0.121	
24.970	-0.287	-0.123	
24.975	-0.217	-0.136	
24.980	0.085	-0.146	
24.985	-0.204	-0.136	
24.990	-0.319	-0.136	
24.995	0.001	-0.149	
25.000	-0.090	-0.147	
25.005	-0.358	-0.144	
25.010	-0.130	-0.159	
25.015	0.070	-0.162	
25.020	-0.210	-0.143	
25.025	-0.070	-0.127	
25.030	0.407	-0.093	
25.035	-0.024	-0.026	
25.040	-0.191	0.020	
25.045	0.116	0.025	
25.050	-0.038	0.023	
25.055	-0.317	0.005	
25.060	-0.098	-0.040	
25.065	0.032	-0.077	
25.070	-0.281	-0.096	
25.075	-0.209	-0.121	
25.080	0.081	-0.140	
25.085	-0.203	-0.135	
25.090	-0.303	-0.136	
25.095	0.024	-0.148	
25.100	-0.056	-0.141	
25.105	-0.311	-0.130	
25.110	-0.075	-0.135	
25.115	0.105	-0.129	
25.120	-0.230	-0.107	
25.125	-0.136	-0.099	
25.130	0.276	-0.087	
25.135	-0.056	-0.049	
25.140	-0.163	-0.021	
25.145	0.283	-0.008	
25.150	0.177	0.027	
25.155	-0.165	0.061	
25.160	0.134	0.065	
25.165	0.351	0.076	
25.170	-0.116	0.101	
25.175	-0.017	0.099	
25.180	0.424	0.093	
25.185	0.001	0.111	
25.190	-0.131	0.113	
25.195	0.323	0.096	
25.200	0.218	0.104	
25.205	-0.171	0.116	
25.210	0.091	0.099	
25.215	0.300	0.086	
25.220	-0.153	0.089	
25.225	-0.090	0.070	
25.230	0.294	0.046	
25.235	-0.084	0.045	
25.240	-0.209	0.032	
25.245	0.200	0.006	
25.250	0.078	0.004	
25.255	-0.236	0.008	
25.260	0.015	-0.009	
25.265	0.209	-0.016	
25.270	-0.180	-0.004	
25.275	-0.110	-0.010	
25.280	0.262	-0.017	
25.285	-0.099	-0.003	
25.290	-0.209	-0.002	
25.295	0.157	-0.018	
25.300	0.040	-0.016	
25.305	-0.249	-0.012	
25.310	0.009	-0.029	
25.315	0.233	-0.032	
25.320	-0.169	-0.013	
25.325	-0.096	-0.011	
25.330	0.329	-0.009	
25.335	-0.037	0.018	
25.340	-0.182	0.031	
25.345	0.203	0.023	
25.350	0.067	0.028	
25.355	-0.233	0.030	
25.360	0.020	0.008	
25.365	0.239	-0.002	
25.370	-0.177	0.008	
25.375	-0.108	0.001	
25.380	0.392	-0.002	
25.385	0.123	0.033	
25.390	0.001	0.074	
25.395	0.594	0.114	
25.400	0.498	0.190	
25.405	0.009	0.266	
25.410	0.392	0.297	
25.415	0.596	0.321	
25.420	0.027	0.348	
25.425	0.101	0.332	
25.430	0.503	0.296	
25.435	0.047	0.277	
25.440	-0.107	0.240	
25.445	0.366	0.186	
25.450	0.297	0.168	
25.455	-0.038	0.170	
25.460	0.448	0.171	
25.465	0.649	0.209	
25.470	0.004	0.270	
25.475	0.003	0.281	
25.480	0.360	0.251	
25.485	-0.050	0.222	
25.490	-0.204	0.168	
25.495	0.131	0.096	
25.500	0.011	0.046	
25.505	-0.271	0.007	
25.510	-0.044	-0.040	
25.515	0.149	-0.065	
25.520	-0.223	-0.064	
25.525	-0.165	-0.073	
25.530	0.142	-0.083	
25.535	-0.171	-0.075	
25.540	-0.299	-0.080	
25.545	-0.002	-0.103	
25.550	-0.096	-0.114	
25.555	-0.352	-0.124	
25.560	-0.130	-0.148	
25.565	-0.005	-0.162	
25.570	-0.306	-0.159	
25.575	-0.250	-0.168	
25.580	0.024	-0.178	
25.585	-0.217	-0.169	
25.590	-0.323	-0.167	
25.595	0.003	-0.175	
25.600	-0.072	-0.165	
25.605	-0.320	-0.150	
25.610	-0.096	-0.153	
25.615	0.070	-0.146	
25.620	-0.256	-0.126	
25.625	-0.201	-0.122	
25.630	0.114	-0.123	
25.635	-0.175	-0.108	
25.640	-0.306	-0.105	
25.645	0.008	-0.121	
25.650	-0.078	-0.123	
25.655	-0.325	-0.123	
25.660	-0.090	-0.138	
25.665	0.030	-0.142	
25.670	-0.331	-0.134	
25.675	-0.291	-0.148	
25.680	-0.040	-0.172	
25.685	-0.282	-0.182	
25.690	-0.406	-0.200	
25.695	-0.119	-0.228	
25.700	-0.183	-0.237	
25.705	-0.433	-0.241	
25.710	-0.213	-0.256	
25.715	-0.052	-0.259	
25.720	-0.326	-0.242	
25.725	-0.259	-0.233	
25.730	0.130	-0.219	
25.735	-0.098	-0.176	
25.740	-0.174	-0.134	
25.745	0.306	-0.094	
25.750	0.200	-0.028	
25.755	-0.168	0.034	
25.760	0.152	0.059	
25.765	0.413	0.086	
25.770	-0.090	0.125	
25.775	0.003	0.131	
25.780	0.457	0.128	
25.785	0.014	0.145	
25.790	-0.151	0.142	
25.795	0.258	0.113	
25.800	0.079	0.099	
25.805	-0.253	0.081	
25.810	-0.032	0.036	
25.815	0.094	-0.003	
25.820	-0.302	-0.028	
25.825	-0.242	-0.070	
25.830	0.041	-0.112	
25.835	-0.239	-0.131	
25.840	-0.377	-0.153	
25.845	-0.108	-0.187	
25.850	-0.206	-0.206	
25.855	-0.457	-0.222	
25.860	-0.209	-0.251	
25.865	-0.076	-0.262	
25.870	-0.398	-0.255	
25.875	-0.328	-0.259	
25.880	-0.049	-0.265	
25.885	-0.305	-0.252	
25.890	-0.395	-0.248	
25.895	-0.105	-0.256	
25.900	-0.230	-0.251	
25.905	-0.517	-0.252	
25.910	-0.279	-0.277	
25.915	-0.178	-0.296	
25.920	-0.483	-0.303	
25.925	-0.374	-0.320	
25.930	-0.075	-0.330	
25.935	-0.310	-0.312	
25.940	-0.395	-0.296	
25.945	-0.031	-0.286	
25.950	-0.102	-0.254	
25.955	-0.357	-0.218	
25.960	-0.076	-0.202	
25.965	0.148	-0.173	
25.970	-0.246	-0.128	
25.975	-0.137	-0.105	
25.980	0.314	-0.083	
25.985	-0.075	-0.038	
25.990	-0.188	-0.010	
25.995	0.320	-0.000	
26.000	0.200	0.035	
26.005	-0.183	0.070	
26.010	0.216	0.077	
26.015	0.483	0.100	
26.020	-0.090	0.143	
26.025	0.024	0.153	
26.030	0.538	0.153	
26.035	0.088	0.179	
26.040	-0.073	0.189	
26.045	0.520	0.180	
26.050	0.383	0.205	
26.055	-0.102	0.234	
26.060	0.320	0.228	
26.065	0.558	0.233	
26.070	-0.024	0.258	
26.075	0.117	0.252	
26.080	0.614	0.240	
26.085	0.114	0.257	
26.090	-0.075	0.254	
26.095	0.514	0.227	
26.100	0.363	0.233	
26.105	-0.092	0.246	
26.110	0.348	0.231	
26.115	0.555	0.235	
26.120	-0.046	0.258	
26.125	0.076	0.247	
26.130	0.601	0.229	
26.135	0.108	0.241	
26.140	-0.075	0.237	
26.145	0.471	0.211	
26.150	0.328	0.215	
26.155	-0.119	0.223	
26.160	0.291	0.204	
26.165	0.517	0.202	
26.170	-0.066	0.222	
26.175	0.061	0.211	
26.180	0.569	0.196	
26.185	0.087	0.211	
26.190	-0.090	0.210	
26.195	0.483	0.189	
26.200	0.349	0.200	
26.205	-0.120	0.217	
26.210	0.261	0.203	
26.215	0.466	0.198	
26.220	-0.137	0.208	
26.225	-0.070	0.180	
26.230	0.418	0.140	
26.235	0.026	0.130	
26.240	-0.087	0.119	
26.245	0.511	0.109	
26.250	0.424	0.146	
26.255	-0.049	0.198	
26.260	0.370	0.219	
26.265	0.570	0.247	
26.270	-0.031	0.284	
26.275	0.072	0.276	
26.280	0.549	0.252	
26.285	0.047	0.250	
26.290	-0.139	0.226	
26.295	0.346	0.178	
26.300	0.209	0.156	
26.305	-0.154	0.145	
26.310	0.258	0.120	
26.315	0.553	0.128	
26.320	0.004	0.171	
26.325	0.056	0.189	
26.330	0.454	0.190	
26.335	-0.056	0.197	
26.340	-0.223	0.170	
26.345	0.151	0.109	
26.350	0.000	0.062	
26.355	-0.306	0.021	
26.360	-0.058	-0.034	
26.365	0.110	-0.070	
26.370	-0.268	-0.079	
26.375	-0.197	-0.098	
26.380	0.239	-0.109	
26.385	-0.014	-0.081	
26.390	-0.027	-0.045	
26.395	0.738	0.013	
26.400	0.738	0.139	
26.405	0.312	0.292	
26.410	0.825	0.415	
26.415	1.201	0.544	
26.420	0.745	0.691	
26.425	0.965	0.804	
26.430	1.462	0.902	
26.435	1.003	1.010	
26.440	0.730	1.070	
26.445	1.264	1.074	
26.450	1.014	1.075	
26.455	0.340	1.044	
26.460	0.651	0.945	
26.465	0.755	0.832	
26.470	0.026	0.724	
26.475	0.024	0.575	
26.480	0.418	0.419	
26.485	-0.056	0.302	
26.490	-0.207	0.193	
26.495	0.110	0.087	
26.500	-0.041	0.018	
26.505	-0.337	-0.034	
26.510	-0.116	-0.092	
26.515	0.029	-0.128	
26.520	-0.313	-0.139	
26.525	-0.250	-0.158	
26.530	0.029	-0.174	
26.535	-0.244	-0.170	
26.540	-0.361	-0.175	
26.545	-0.043	-0.191	
26.550	-0.127	-0.191	
26.555	-0.395	-0.187	
26.560	-0.168	-0.201	
26.565	-0.049	-0.206	
26.570	-0.369	-0.200	
26.575	-0.297	-0.210	
26.580	-0.011	-0.221	
26.585	-0.256	-0.213	
26.590	-0.364	-0.210	
26.595	-0.041	-0.217	
26.600	-0.122	-0.207	
26.605	-0.381	-0.194	
26.610	-0.119	-0.199	
26.615	0.038	-0.191	
26.620	-0.310	-0.168	
26.625	-0.236	-0.164	
26.630	0.079	-0.164	
26.635	-0.220	-0.147	
26.640	-0.340	-0.144	
26.645	-0.018	-0.159	
26.650	-0.082	-0.157	
26.655	-0.348	-0.152	
26.660	-0.101	-0.162	
26.665	0.058	-0.160	
26.670	-0.285	-0.142	
26.675	-0.224	-0.141	
26.680	0.122	-0.142	
26.685	-0.163	-0.123	
26.690	-0.290	-0.114	
26.695	0.111	-0.118	
26.700	0.000	-0.101	
26.705	-0.311	-0.083	
26.710	-0.063	-0.091	
26.715	0.088	-0.094	
26.720	-0.273	-0.085	
26.725	-0.180	-0.095	
26.730	0.271	-0.099	
26.735	-0.043	-0.068	
26.740	-0.110	-0.036	
26.745	0.419	-0.007	
26.750	0.198	0.051	
26.755	-0.223	0.098	
26.760	0.011	0.092	
26.765	0.151	0.070	
26.770	-0.258	0.048	
26.775	-0.183	0.004	
26.780	0.195	-0.039	
26.785	-0.153	-0.050	
26.790	-0.271	-0.064	
26.795	0.110	-0.086	
26.800	0.008	-0.083	
26.805	-0.282	-0.073	
26.810	-0.008	-0.081	
26.815	0.168	-0.076	
26.820	-0.256	-0.056	
26.825	-0.183	-0.060	
26.830	0.223	-0.070	
26.835	-0.111	-0.055	
26.840	-0.235	-0.048	
26.845	0.155	-0.055	
26.850	0.026	-0.044	
26.855	-0.238	-0.032	
26.860	0.111	-0.036	
26.865	0.419	-0.012	
26.870	-0.066	0.042	
26.875	0.035	0.076	
26.880	0.546	0.104	
26.885	0.131	0.157	
26.890	-0.050	0.189	
26.895	0.501	0.194	
26.900	0.364	0.222	
26.905	-0.096	0.247	
26.910	0.306	0.235	
26.915	0.559	0.236	
26.920	-0.012	0.258	
26.925	0.091	0.250	
26.930	0.585	0.235	
26.935	0.116	0.248	
26.940	-0.087	0.242	
26.945	0.419	0.211	
26.950	0.290	0.205	
26.955	-0.146	0.203	
26.960	0.177	0.173	
26.965	0.431	0.156	
26.970	-0.120	0.161	
26.975	-0.105	0.138	
26.980	0.305	0.100	
26.985	-0.101	0.081	
26.990	-0.249	0.050	
26.995	0.122	0.004	
27.000	0.027	-0.019	
27.005	-0.271	-0.031	
27.010	-0.021	-0.056	
27.015	0.242	-0.061	
27.020	-0.149	-0.038	
27.025	-0.021	-0.023	
27.030	0.517	0.003	
27.035	0.097	0.067	
27.040	-0.078	0.115	
27.045	0.460	0.136	
27.050	0.338	0.176	
27.055	-0.108	0.210	
27.060	0.250	0.206	
27.065	0.459	0.205	
27.070	-0.079	0.217	
27.075	-0.006	0.196	
27.080	0.437	0.166	
27.085	-0.014	0.160	
27.090	-0.166	0.138	
27.095	0.253	0.098	
27.100	0.117	0.081	
27.105	-0.229	0.070	
27.110	0.011	0.036	
27.115	0.212	0.013	
27.120	-0.212	0.010	
27.125	-0.134	-0.010	
27.130	0.250	-0.028	
27.135	-0.113	-0.020	
27.140	-0.259	-0.024	
27.145	0.076	-0.046	
27.150	-0.018	-0.055	
27.155	-0.284	-0.060	
27.160	0.023	-0.078	
27.165	0.372	-0.066	
27.170	-0.066	-0.015	
27.175	0.037	0.025	
27.180	0.483	0.063	
27.185	-0.024	0.115	
27.190	-0.203	0.130	
27.195	0.181	0.102	
27.200	0.046	0.079	
27.205	-0.277	0.053	
27.210	-0.038	0.005	
27.215	0.174	-0.028	
27.220	-0.223	-0.035	
27.225	-0.160	-0.052	
27.230	0.213	-0.066	
27.235	-0.127	-0.054	
27.240	-0.239	-0.051	
27.245	0.160	-0.061	
27.250	0.055	-0.048	
27.255	-0.256	-0.032	
27.260	-0.002	-0.040	
27.265	0.203	-0.039	
27.270	-0.242	-0.024	
27.275	-0.194	-0.034	
27.280	0.152	-0.055	
27.285	-0.177	-0.058	
27.290	-0.303	-0.072	
27.295	0.046	-0.100	
27.300	-0.011	-0.105	
27.305	-0.284	-0.101	
27.310	-0.012	-0.107	
27.315	0.218	-0.094	
27.320	-0.204	-0.061	
27.325	-0.128	-0.048	
27.330	0.326	-0.039	
27.335	-0.070	-0.006	
27.340	-0.218	0.009	
27.345	0.213	0.002	
27.350	0.105	0.012	
27.355	-0.226	0.024	
27.360	0.062	0.013	
27.365	0.312	0.014	
27.370	-0.154	0.037	
27.375	-0.078	0.038	
27.380	0.381	0.035	
27.385	-0.027	0.057	
27.390	-0.160	0.065	
27.395	0.338	0.057	
27.400	0.203	0.075	
27.405	-0.178	0.097	
27.410	0.143	0.089	
27.415	0.386	0.091	
27.420	-0.114	0.113	
27.425	-0.046	0.107	
27.430	0.418	0.095	
27.435	-0.017	0.107	
27.440	-0.165	0.103	
27.445	0.303	0.080	
27.450	0.209	0.084	
27.455	-0.151	0.097	
27.460	0.180	0.089	
27.465	0.415	0.098	
27.470	-0.089	0.126	
27.475	-0.002	0.128	
27.480	0.489	0.124	
27.485	0.043	0.146	
27.490	-0.134	0.150	
27.495	0.337	0.129	
27.500	0.219	0.131	
27.505	-0.178	0.135	
27.510	0.107	0.110	
27.515	0.267	0.092	
27.520	-0.213	0.086	
27.525	-0.175	0.051	
27.530	0.151	0.006	
27.535	-0.169	-0.020	
27.540	-0.299	-0.051	
27.545	0.052	-0.090	
27.550	-0.044	-0.104	
27.555	-0.323	-0.108	
27.560	-0.081	-0.126	
27.565	0.142	-0.127	
27.570	-0.249	-0.106	
27.575	-0.186	-0.102	
27.580	0.194	-0.100	
27.585	-0.116	-0.077	
27.590	-0.204	-0.063	
27.595	0.312	-0.054	
27.600	0.291	-0.007	
27.605	-0.128	0.053	
27.610	0.160	0.082	
27.615	0.309	0.104	
27.620	-0.204	0.122	
27.625	-0.171	0.096	
27.630	0.169	0.048	
27.635	-0.182	0.015	
27.640	-0.314	-0.027	
27.645	0.037	-0.079	
27.650	-0.072	-0.104	
27.655	-0.352	-0.118	
27.660	-0.099	-0.144	
27.665	0.068	-0.152	
27.670	-0.288	-0.140	
27.675	-0.198	-0.140	
27.680	0.194	-0.137	
27.685	-0.142	-0.108	
27.690	-0.259	-0.090	
27.695	0.186	-0.087	
27.700	0.064	-0.061	
27.705	-0.256	-0.034	
27.710	0.004	-0.035	
27.715	0.224	-0.030	
27.720	-0.213	-0.011	
27.725	-0.149	-0.016	
27.730	0.253	-0.027	
27.735	-0.105	-0.016	
27.740	-0.227	-0.016	
27.745	0.175	-0.031	
27.750	0.041	-0.025	
27.755	-0.288	-0.019	
27.760	-0.050	-0.039	
27.765	0.123	-0.054	
27.770	-0.294	-0.056	
27.775	-0.246	-0.080	
27.780	0.037	-0.111	
27.785	-0.271	-0.126	
27.790	-0.399	-0.152	
27.795	-0.073	-0.190	
27.800	-0.143	-0.205	
27.805	-0.427	-0.211	
27.810	-0.168	-0.229	
27.815	-0.005	-0.231	
27.820	-0.334	-0.213	
27.825	-0.250	-0.207	
27.830	0.105	-0.200	
27.835	-0.194	-0.170	
27.840	-0.310	-0.151	
27.845	0.090	-0.148	
27.850	-0.006	-0.125	
27.855	-0.291	-0.100	
27.860	0.020	-0.096	
27.865	0.296	-0.074	
27.870	-0.192	-0.030	
27.875	-0.098	-0.012	
27.880	0.387	-0.001	
27.885	-0.047	0.034	
27.890	-0.175	0.050	
27.895	0.361	0.047	
27.900	0.251	0.074	
27.905	-0.169	0.105	
27.910	0.213	0.107	
27.915	0.477	0.122	
27.920	-0.079	0.157	
27.925	0.012	0.161	
27.930	0.512	0.154	
27.935	0.029	0.171	
27.940	-0.143	0.168	
27.945	0.376	0.141	
27.950	0.247	0.141	
27.955	-0.172	0.147	
27.960	0.195	0.128	
27.965	0.436	0.125	
27.970	-0.117	0.144	
27.975	-0.027	0.135	
27.980	0.486	0.120	
27.985	0.011	0.135	
27.990	-0.157	0.133	
27.995	0.341	0.110	
28.000	0.216	0.112	
28.005	-0.180	0.120	
28.010	0.190	0.104	
28.015	0.505	0.109	
28.020	-0.015	0.147	
28.025	0.198	0.169	
28.030	0.732	0.200	
28.035	0.168	0.263	
28.040	-0.099	0.290	
28.045	0.401	0.267	
28.050	0.213	0.248	
28.055	-0.207	0.222	
28.060	0.108	0.164	
28.065	0.354	0.122	
28.070	-0.159	0.109	
28.075	-0.078	0.081	
28.080	0.415	0.056	
28.085	-0.023	0.068	
28.090	-0.180	0.069	
28.095	0.300	0.054	
28.100	0.184	0.064	
28.105	-0.206	0.079	
28.110	0.105	0.066	
28.115	0.352	0.064	
28.120	-0.154	0.081	
28.125	-0.069	0.074	
28.130	0.439	0.063	
28.135	-0.008	0.083	
28.140	-0.159	0.090	
28.145	0.357	0.078	
28.150	0.235	0.094	
28.155	-0.175	0.115	
28.160	0.195	0.107	
28.165	0.465	0.115	
28.170	-0.105	0.145	
28.175	-0.024	0.143	
28.180	0.488	0.132	
28.185	0.035	0.147	
28.190	-0.122	0.147	
28.195	0.398	0.129	
28.200	0.262	0.140	
28.205	-0.162	0.154	
28.210	0.180	0.138	
28.215	0.430	0.134	
28.220	-0.096	0.151	
28.225	-0.008	0.142	
28.230	0.456	0.127	
28.235	-0.011	0.137	
28.240	-0.172	0.129	
28.245	0.323	0.100	
28.250	0.200	0.098	
28.255	-0.183	0.104	
28.260	0.136	0.086	
28.265	0.369	0.083	
28.270	-0.151	0.099	
28.275	-0.082	0.088	
28.280	0.386	0.070	
28.285	-0.050	0.077	
28.290	-0.192	0.071	
28.295	0.285	0.048	
28.300	0.161	0.053	
28.305	-0.209	0.064	
28.310	0.097	0.050	
28.315	0.349	0.049	
28.320	-0.159	0.070	
28.325	-0.081	0.064	
28.330	0.408	0.054	
28.335	-0.020	0.072	
28.340	-0.172	0.077	
28.345	0.315	0.062	
28.350	0.189	0.074	
28.355	-0.220	0.088	
28.360	0.056	0.069	
28.365	0.280	0.056	
28.370	-0.203	0.058	
28.375	-0.131	0.036	
28.380	0.290	0.011	
28.385	-0.102	0.012	
28.390	-0.247	0.003	
28.395	0.168	-0.021	
28.400	0.055	-0.023	
28.405	-0.271	-0.019	
28.410	-0.008	-0.037	
28.415	0.235	-0.041	
28.420	-0.230	-0.025	
28.425	-0.174	-0.031	
28.430	0.224	-0.044	
28.435	-0.127	-0.036	
28.440	-0.218	-0.037	
28.445	0.369	-0.039	
28.450	0.402	0.009	
28.455	-0.032	0.084	
28.460	0.386	0.139	
28.465	0.584	0.201	
28.470	0.001	0.266	
28.475	0.139	0.283	
28.480	0.669	0.282	
28.485	0.283	0.311	
28.490	0.082	0.329	
28.495	0.733	0.331	
28.500	0.622	0.372	
28.505	0.081	0.418	
28.510	0.544	0.425	
28.515	0.802	0.440	
28.520	0.169	0.474	
28.525	0.262	0.468	
28.530	0.768	0.446	
28.535	0.335	0.451	
28.540	0.024	0.438	
28.545	0.567	0.395	
28.550	0.457	0.375	
28.555	-0.055	0.362	
28.560	0.291	0.318	
28.565	0.532	0.287	
28.570	-0.060	0.278	
28.575	-0.021	0.241	
