Vernier Format 2
ecg5.txt 10/19/2025 10:25:14
Run 1
Time	Potential	EKG	
T	P	E	
s	mV	mV	

0.000	2.079	0.096	
0.005	-0.395	0.299	
0.010	-0.773	0.368	
0.015	1.886	0.331	
0.020	0.639	0.420	
0.025	-0.904	0.490	
0.030	1.142	0.433	
0.035	2.003	0.481	
0.040	-0.627	0.624	
0.045	0.055	0.617	
0.050	2.534	0.592	
0.055	-0.160	0.700	
0.060	-0.541	0.701	
0.065	2.282	0.620	
0.070	0.985	0.697	
0.075	-0.787	0.766	
0.080	1.166	0.685	
0.085	1.809	0.674	
0.090	-0.782	0.728	
0.095	-0.209	0.623	
0.100	1.933	0.490	
0.105	-0.448	0.482	
0.110	-0.800	0.400	
0.115	1.642	0.267	
0.120	0.331	0.282	
0.125	-0.993	0.298	
0.130	0.844	0.214	
0.135	1.605	0.239	
0.140	-0.749	0.360	
0.145	-0.021	0.357	
0.150	2.302	0.359	
0.155	-0.306	0.491	
0.160	-0.730	0.510	
0.165	1.631	0.419	
0.170	0.238	0.424	
0.175	-0.993	0.400	
0.180	0.544	0.259	
0.185	1.201	0.202	
0.190	-0.960	0.228	
0.195	-0.317	0.151	
0.200	1.747	0.092	
0.205	-0.502	0.170	
0.210	-0.861	0.171	
0.215	1.375	0.101	
0.220	0.072	0.138	
0.225	-0.993	0.155	
0.230	0.401	0.065	
0.235	1.023	0.047	
0.240	-0.993	0.097	
0.245	-0.464	0.038	
0.250	1.367	-0.024	
0.255	-0.683	0.023	
0.260	-0.989	-0.003	
0.265	1.073	-0.089	
0.270	-0.087	-0.065	
0.275	-0.993	-0.046	
0.280	0.213	-0.114	
0.285	0.892	-0.111	
0.290	-0.993	-0.043	
0.295	-0.483	-0.074	
0.300	1.387	-0.102	
0.305	-0.665	-0.022	
0.310	-0.985	-0.022	
0.315	1.203	-0.083	
0.320	-0.055	-0.035	
0.325	-0.994	-0.001	
0.330	0.236	-0.067	
0.335	0.855	-0.072	
0.340	-0.994	-0.017	
0.345	-0.546	-0.064	
0.350	1.300	-0.112	
0.355	-0.819	-0.058	
0.360	-0.996	-0.082	
0.365	1.001	-0.162	
0.370	-0.201	-0.134	
0.375	-0.994	-0.114	
0.380	0.131	-0.178	
0.385	0.773	-0.175	
0.390	-0.994	-0.109	
0.395	-0.585	-0.140	
0.400	1.303	-0.169	
0.405	-0.808	-0.096	
0.410	-0.994	-0.103	
0.415	1.096	-0.166	
0.420	-0.137	-0.117	
0.425	-0.994	-0.079	
0.430	0.285	-0.131	
0.435	0.956	-0.108	
0.440	-0.994	-0.021	
0.445	-0.524	-0.046	
0.450	1.389	-0.080	
0.455	-0.782	-0.014	
0.460	-0.994	-0.033	
0.465	1.085	-0.114	
0.470	-0.169	-0.086	
0.475	-0.994	-0.068	
0.480	0.107	-0.141	
0.485	0.755	-0.152	
0.490	-0.994	-0.101	
0.495	-0.578	-0.141	
0.500	1.255	-0.176	
0.505	-0.808	-0.108	
0.510	-0.994	-0.118	
0.515	1.058	-0.181	
0.520	-0.174	-0.135	
0.525	-0.994	-0.101	
0.530	0.157	-0.157	
0.535	0.741	-0.154	
0.540	-0.993	-0.094	
0.545	-0.517	-0.128	
0.550	1.575	-0.142	
0.555	-0.619	-0.030	
0.560	-0.889	0.005	
0.565	1.625	-0.014	
0.570	0.037	0.090	
0.575	-0.996	0.157	
0.580	0.404	0.089	
0.585	1.082	0.081	
0.590	-0.994	0.134	
0.595	-0.401	0.076	
0.600	1.681	0.027	
0.605	-0.563	0.109	
0.610	-0.869	0.115	
0.615	1.395	0.055	
0.620	0.111	0.109	
0.625	-0.994	0.144	
0.630	0.623	0.077	
0.635	1.224	0.098	
0.640	-0.924	0.189	
0.645	-0.325	0.155	
0.650	1.601	0.111	
0.655	-0.543	0.177	
0.660	-0.845	0.161	
0.665	1.376	0.084	
0.670	0.149	0.126	
0.675	-0.993	0.155	
0.680	0.570	0.082	
0.685	1.232	0.094	
0.690	-0.875	0.183	
0.695	-0.250	0.157	
0.700	1.854	0.138	
0.705	-0.366	0.245	
0.710	-0.669	0.274	
0.715	1.706	0.237	
0.720	0.526	0.326	
0.725	-0.843	0.398	
0.730	0.887	0.348	
0.735	1.486	0.370	
0.740	-0.733	0.457	
0.745	-0.153	0.409	
0.750	1.866	0.348	
0.755	-0.335	0.404	
0.760	-0.651	0.382	
0.765	1.620	0.300	
0.770	0.436	0.344	
0.775	-0.858	0.377	
0.780	0.800	0.302	
0.785	1.419	0.309	
0.790	-0.756	0.388	
0.795	-0.195	0.342	
0.800	1.758	0.285	
0.805	-0.389	0.339	
0.810	-0.723	0.315	
0.815	1.456	0.228	
0.820	0.332	0.259	
0.825	-0.898	0.283	
0.830	0.730	0.209	
0.835	1.387	0.224	
0.840	-0.753	0.317	
0.845	-0.198	0.289	
0.850	1.788	0.252	
0.855	-0.377	0.325	
0.860	-0.707	0.317	
0.865	1.492	0.240	
0.870	0.378	0.281	
0.875	-0.875	0.312	
0.880	0.710	0.240	
0.885	1.334	0.246	
0.890	-0.744	0.326	
0.895	-0.204	0.288	
0.900	1.671	0.240	
0.905	-0.393	0.299	
0.910	-0.704	0.281	
0.915	1.416	0.203	
0.920	0.308	0.239	
0.925	-0.890	0.265	
0.930	0.643	0.191	
0.935	1.241	0.195	
0.940	-0.778	0.269	
0.945	-0.249	0.230	
0.950	1.634	0.185	
0.955	-0.340	0.252	
0.960	-0.593	0.255	
0.965	1.816	0.223	
0.970	0.765	0.342	
0.975	-0.697	0.459	
0.980	0.918	0.445	
0.985	1.360	0.472	
0.990	-0.735	0.532	
0.995	-0.207	0.448	
1.000	1.552	0.343	
1.005	-0.438	0.342	
1.010	-0.712	0.276	
1.015	1.338	0.169	
1.020	0.174	0.184	
1.025	-0.898	0.193	
1.030	0.636	0.117	
1.035	1.148	0.128	
1.040	-0.808	0.208	
1.045	-0.194	0.178	
1.050	1.630	0.151	
1.055	-0.445	0.230	
1.060	-0.662	0.230	
1.065	1.509	0.176	
1.070	0.328	0.241	
1.075	-0.788	0.292	
1.080	0.951	0.249	
1.085	1.363	0.296	
1.090	-0.680	0.403	
1.095	-0.032	0.380	
1.100	1.805	0.347	
1.105	-0.360	0.416	
1.110	-0.573	0.396	
1.115	1.613	0.318	
1.120	0.312	0.358	
1.125	-0.803	0.378	
1.130	0.919	0.300	
1.135	1.223	0.311	
1.140	-0.779	0.378	
1.145	-0.143	0.319	
1.150	1.582	0.255	
1.155	-0.464	0.295	
1.160	-0.660	0.259	
1.165	1.407	0.177	
1.170	0.090	0.207	
1.175	-0.890	0.216	
1.180	0.727	0.136	
1.185	1.047	0.146	
1.190	-0.848	0.215	
1.195	-0.192	0.170	
1.200	1.514	0.130	
1.205	-0.529	0.193	
1.210	-0.691	0.177	
1.215	1.482	0.117	
1.220	0.128	0.177	
1.225	-0.864	0.214	
1.230	0.985	0.164	
1.235	1.363	0.223	
1.240	-0.710	0.349	
1.245	0.014	0.345	
1.250	1.907	0.336	
1.255	-0.339	0.430	
1.260	-0.477	0.432	
1.265	1.974	0.384	
1.270	0.555	0.476	
1.275	-0.707	0.543	
1.280	1.293	0.495	
1.285	1.520	0.537	
1.290	-0.707	0.626	
1.295	0.052	0.561	
1.300	1.896	0.486	
1.305	-0.447	0.516	
1.310	-0.617	0.453	
1.315	1.674	0.338	
1.320	0.050	0.348	
1.325	-0.967	0.325	
1.330	0.872	0.208	
1.335	1.041	0.195	
1.340	-0.991	0.244	
1.345	-0.296	0.166	
1.350	1.428	0.090	
1.355	-0.773	0.118	
1.360	-0.919	0.062	
1.365	1.360	-0.034	
1.370	-0.119	0.002	
1.375	-0.994	0.026	
1.380	0.735	-0.031	
1.385	0.867	0.009	
1.390	-0.994	0.095	
1.395	-0.407	0.049	
1.400	1.300	-0.006	
1.405	-0.822	0.032	
1.410	-0.907	-0.014	
1.415	1.425	-0.089	
1.420	-0.104	-0.025	
1.425	-0.993	0.022	
1.430	0.802	-0.019	
1.435	1.046	0.041	
1.440	-0.989	0.151	
1.445	-0.207	0.124	
1.450	1.604	0.098	
1.455	-0.645	0.175	
1.460	-0.778	0.159	
1.465	1.498	0.090	
1.470	-0.047	0.139	
1.475	-0.993	0.157	
1.480	0.751	0.078	
1.485	0.948	0.091	
1.490	-0.950	0.160	
1.495	-0.201	0.111	
1.500	1.514	0.074	
1.505	-0.572	0.146	
1.510	-0.666	0.141	
1.515	1.564	0.097	
1.520	0.152	0.178	
1.525	-0.831	0.233	
1.530	1.043	0.195	
1.535	1.314	0.259	
1.540	-0.691	0.380	
1.545	0.108	0.372	
1.550	1.840	0.362	
1.555	-0.392	0.447	
1.560	-0.517	0.431	
1.565	1.678	0.355	
1.570	0.160	0.391	
1.575	-0.820	0.391	
1.580	0.954	0.294	
1.585	1.059	0.292	
1.590	-0.848	0.339	
1.595	-0.104	0.266	
1.600	1.492	0.201	
1.605	-0.607	0.237	
1.610	-0.680	0.192	
1.615	1.439	0.111	
1.620	-0.095	0.147	
1.625	-0.968	0.151	
1.630	0.745	0.066	
1.635	0.835	0.074	
1.640	-0.964	0.132	
1.645	-0.194	0.076	
1.650	1.415	0.038	
1.655	-0.668	0.103	
1.660	-0.759	0.084	
1.665	1.323	0.020	
1.670	-0.122	0.066	
1.675	-0.993	0.080	
1.680	0.602	0.003	
1.685	0.750	0.009	
1.690	-0.989	0.062	
1.695	-0.258	0.007	
1.700	1.854	-0.004	
1.705	-0.448	0.129	
1.710	-0.852	0.176	
1.715	1.399	0.131	
1.720	0.203	0.185	
1.725	-0.994	0.214	
1.730	0.480	0.129	
1.735	1.277	0.121	
1.740	-0.986	0.189	
1.745	-0.445	0.135	
1.750	1.645	0.073	
1.755	-0.604	0.132	
1.760	-0.994	0.111	
1.765	1.357	0.024	
1.770	0.271	0.068	
1.775	-0.994	0.119	
1.780	0.803	0.080	
1.785	1.710	0.153	
1.790	-0.900	0.314	
1.795	-0.392	0.313	
1.800	1.855	0.263	
1.805	-0.561	0.317	
1.810	-0.993	0.273	
1.815	1.543	0.155	
1.820	0.355	0.181	
1.825	-0.993	0.219	
1.830	0.683	0.153	
1.835	1.630	0.185	
1.840	-0.936	0.305	
1.845	-0.306	0.283	
1.850	2.210	0.250	
1.855	-0.412	0.359	
1.860	-0.851	0.371	
1.865	2.092	0.307	
1.870	0.764	0.408	
1.875	-0.994	0.504	
1.880	1.027	0.449	
1.885	2.049	0.482	
1.890	-0.957	0.602	
1.895	-0.300	0.542	
1.900	2.683	0.465	
1.905	-0.396	0.556	
1.910	-0.993	0.540	
1.915	2.212	0.424	
1.920	0.898	0.489	
1.925	-0.994	0.570	
1.930	1.049	0.502	
1.935	2.252	0.531	
1.940	-0.988	0.658	
1.945	-0.381	0.594	
1.950	2.678	0.496	
1.955	-0.471	0.564	
1.960	-0.994	0.527	
1.965	2.186	0.400	
1.970	0.759	0.454	
1.975	-0.994	0.522	
1.980	0.863	0.442	
1.985	2.114	0.453	
1.990	-0.993	0.563	
1.995	-0.529	0.495	
2.000	2.537	0.393	
2.005	-0.724	0.446	
2.010	-0.994	0.395	
2.015	1.832	0.256	
2.020	0.262	0.276	
2.025	-0.994	0.297	
2.030	0.314	0.188	
2.035	1.697	0.161	
2.040	-0.994	0.243	
2.045	-0.925	0.183	
2.050	2.020	0.081	
2.055	-0.956	0.116	
2.060	-0.996	0.070	
2.065	1.817	-0.017	
2.070	0.425	0.085	
2.075	-0.996	0.196	
2.080	0.963	0.187	
2.085	3.108	0.334	
2.090	1.090	0.727	
2.095	-0.156	1.022	
2.100	-0.203	1.006	
2.105	-0.502	0.763	
2.110	-0.817	0.409	
2.115	-0.589	0.034	
2.120	-0.521	-0.273	
2.125	-0.791	-0.485	
2.130	-0.651	-0.627	
2.135	-0.386	-0.696	
2.140	-0.593	-0.694	
2.145	-0.634	-0.667	
2.150	-0.293	-0.630	
2.155	-0.380	-0.569	
2.160	-0.602	-0.511	
2.165	-0.326	-0.476	
2.170	-0.168	-0.436	
2.175	-0.390	-0.385	
2.180	-0.159	-0.340	
2.185	0.383	-0.270	
2.190	-0.064	-0.161	
2.195	-0.212	-0.075	
2.200	0.165	-0.034	
2.205	-0.056	-0.005	
2.210	-0.326	-0.002	
2.215	-0.020	-0.034	
2.220	0.187	-0.052	
2.225	-0.226	-0.045	
2.230	-0.098	-0.050	
2.235	0.383	-0.045	
2.240	-0.046	-0.006	
2.245	-0.139	0.022	
2.250	0.425	0.036	
2.255	0.308	0.083	
2.260	-0.110	0.134	
2.265	0.334	0.154	
2.270	0.547	0.186	
2.275	-0.032	0.232	
2.280	0.157	0.241	
2.285	0.691	0.246	
2.290	0.192	0.283	
2.295	-0.002	0.298	
2.300	0.619	0.288	
2.305	0.491	0.310	
2.310	0.009	0.337	
2.315	0.492	0.335	
2.320	0.689	0.349	
2.325	0.062	0.381	
2.330	0.241	0.375	
2.335	0.744	0.362	
2.340	0.247	0.380	
2.345	0.038	0.378	
2.350	0.640	0.351	
2.355	0.450	0.355	
2.360	-0.047	0.360	
2.365	0.399	0.331	
2.370	0.573	0.317	
2.375	-0.053	0.320	
2.380	0.061	0.287	
2.385	0.546	0.246	
2.390	0.037	0.235	
2.395	-0.119	0.210	
2.400	0.386	0.167	
2.405	0.201	0.154	
2.410	-0.198	0.147	
2.415	0.168	0.115	
2.420	0.357	0.101	
2.425	-0.169	0.108	
2.430	-0.076	0.089	
2.435	0.351	0.064	
2.440	-0.105	0.065	
2.445	-0.197	0.050	
2.450	0.436	0.031	
2.455	0.344	0.063	
2.460	-0.064	0.116	
2.465	0.556	0.156	
2.470	0.782	0.232	
2.475	0.075	0.327	
2.480	0.264	0.369	
2.485	0.718	0.382	
2.490	0.038	0.399	
2.495	-0.178	0.361	
2.500	0.250	0.273	
2.505	-0.052	0.192	
2.510	-0.370	0.106	
2.515	-0.102	0.003	
2.520	0.015	-0.074	
2.525	-0.351	-0.118	
2.530	-0.235	-0.160	
2.535	0.088	-0.185	
2.540	-0.223	-0.176	
2.545	-0.319	-0.170	
2.550	0.079	-0.172	
2.555	-0.023	-0.150	
2.560	-0.305	-0.124	
2.565	-0.043	-0.119	
2.570	0.178	-0.105	
2.575	-0.223	-0.074	
2.580	-0.104	-0.062	
2.585	0.479	-0.043	
2.590	0.181	0.022	
2.595	0.064	0.092	
2.600	0.631	0.153	
2.605	0.383	0.233	
2.610	-0.166	0.286	
2.615	0.064	0.265	
2.620	0.210	0.214	
2.625	-0.232	0.161	
2.630	-0.153	0.086	
2.635	0.262	0.021	
2.640	-0.108	-0.003	
2.645	-0.239	-0.023	
2.650	0.186	-0.047	
2.655	0.105	-0.039	
2.660	-0.210	-0.020	
2.665	0.059	-0.018	
2.670	0.291	-0.005	
2.675	-0.168	0.024	
2.680	-0.101	0.028	
2.685	0.349	0.023	
2.690	-0.044	0.042	
2.695	-0.178	0.048	
2.700	0.294	0.036	
2.705	0.206	0.053	
2.710	-0.169	0.076	
2.715	0.134	0.073	
2.720	0.404	0.082	
2.725	-0.092	0.110	
2.730	-0.011	0.113	
2.735	0.489	0.111	
2.740	0.055	0.137	
2.745	-0.117	0.147	
2.750	0.398	0.134	
2.755	0.302	0.149	
2.760	-0.140	0.168	
2.765	0.171	0.155	
2.770	0.433	0.150	
2.775	-0.098	0.163	
2.780	-0.063	0.147	
2.785	0.381	0.120	
2.790	-0.041	0.114	
2.795	-0.198	0.095	
2.800	0.226	0.059	
2.805	0.123	0.047	
2.810	-0.230	0.044	
2.815	0.024	0.020	
2.820	0.270	0.008	
2.825	-0.182	0.019	
2.830	-0.130	0.010	
2.835	0.305	-0.002	
2.840	-0.058	0.012	
2.845	-0.212	0.015	
2.850	0.209	0.002	
2.855	0.128	0.010	
2.860	-0.220	0.024	
2.865	0.044	0.014	
2.870	0.337	0.016	
2.875	-0.139	0.040	
2.880	-0.089	0.044	
2.885	0.378	0.040	
2.890	-0.024	0.061	
2.895	-0.201	0.066	
2.900	0.219	0.046	
2.905	0.119	0.045	
2.910	-0.233	0.046	
2.915	0.008	0.022	
2.920	0.258	0.009	
2.925	-0.192	0.015	
2.930	-0.160	0.003	
2.935	0.235	-0.017	
2.940	-0.117	-0.015	
2.945	-0.288	-0.024	
2.950	0.047	-0.054	
2.955	-0.009	-0.068	
2.960	-0.302	-0.075	
2.965	-0.064	-0.096	
2.970	0.183	-0.100	
2.975	-0.224	-0.080	
2.980	-0.192	-0.076	
2.985	0.175	-0.081	
2.990	-0.110	-0.065	
2.995	-0.212	-0.058	
3.000	0.325	-0.053	
3.005	0.419	-0.001	
3.010	-0.035	0.076	
3.015	0.218	0.127	
3.020	0.375	0.164	
3.025	-0.163	0.189	
3.030	-0.180	0.160	
3.035	0.161	0.100	
3.040	-0.128	0.053	
3.045	-0.277	0.002	
3.050	0.079	-0.051	
3.055	0.044	-0.071	
3.060	-0.253	-0.072	
3.065	-0.006	-0.080	
3.070	0.271	-0.070	
3.075	-0.168	-0.034	
3.080	-0.140	-0.020	
3.085	0.294	-0.017	
3.090	-0.038	0.007	
3.095	-0.200	0.018	
3.100	0.229	0.011	
3.105	0.192	0.026	
3.110	-0.204	0.047	
3.115	0.029	0.040	
3.120	0.332	0.038	
3.125	-0.113	0.057	
3.130	-0.082	0.057	
3.135	0.376	0.051	
3.140	0.023	0.070	
3.145	-0.154	0.079	
3.150	0.288	0.069	
3.155	0.250	0.083	
3.160	-0.160	0.103	
3.165	0.120	0.096	
3.170	0.404	0.097	
3.175	-0.082	0.119	
3.180	-0.081	0.115	
3.185	0.383	0.098	
3.190	0.029	0.105	
3.195	-0.169	0.101	
3.200	0.233	0.077	
3.205	0.192	0.074	
3.210	-0.192	0.078	
3.215	0.027	0.058	
3.220	0.337	0.047	
3.225	-0.146	0.058	
3.230	-0.136	0.049	
3.235	0.308	0.030	
3.240	-0.017	0.037	
3.245	-0.189	0.037	
3.250	0.189	0.021	
3.255	0.190	0.027	
3.260	-0.192	0.042	
3.265	0.026	0.034	
3.270	0.328	0.032	
3.275	-0.124	0.051	
3.280	-0.119	0.049	
3.285	0.320	0.038	
3.290	0.012	0.049	
3.295	-0.197	0.053	
3.300	0.218	0.037	
3.305	0.218	0.044	
3.310	-0.163	0.062	
3.315	0.049	0.056	
3.320	0.332	0.055	
3.325	-0.137	0.071	
3.330	-0.146	0.062	
3.335	0.253	0.038	
3.340	-0.081	0.032	
3.345	-0.267	0.015	
3.350	0.058	-0.022	
3.355	0.067	-0.040	
3.360	-0.268	-0.045	
3.365	-0.079	-0.064	
3.370	0.195	-0.073	
3.375	-0.194	-0.058	
3.380	-0.194	-0.058	
3.385	0.223	-0.064	
3.390	-0.085	-0.047	
3.395	-0.271	-0.040	
3.400	0.101	-0.054	
3.405	0.172	-0.046	
3.410	-0.153	-0.020	
3.415	0.189	-0.001	
3.420	0.584	0.046	
3.425	-0.020	0.122	
3.430	-0.090	0.158	
3.435	0.279	0.150	
3.440	-0.084	0.136	
3.445	-0.294	0.096	
3.450	0.015	0.028	
3.455	0.055	-0.020	
3.460	-0.261	-0.046	
3.465	-0.066	-0.075	
3.470	0.256	-0.082	
3.475	-0.159	-0.057	
3.480	-0.151	-0.044	
3.485	0.268	-0.038	
3.490	-0.029	-0.012	
3.495	-0.226	0.003	
3.500	0.149	-0.006	
3.505	0.187	0.003	
3.510	-0.204	0.021	
3.515	0.008	0.017	
3.520	0.329	0.018	
3.525	-0.130	0.040	
3.530	-0.136	0.040	
3.535	0.322	0.029	
3.540	0.011	0.042	
3.545	-0.188	0.048	
3.550	0.245	0.037	
3.555	0.290	0.052	
3.560	-0.151	0.080	
3.565	0.085	0.083	
3.570	0.415	0.089	
3.575	-0.070	0.115	
3.580	-0.073	0.115	
3.585	0.384	0.102	
3.590	0.052	0.111	
3.595	-0.174	0.110	
3.600	0.227	0.085	
3.605	0.258	0.083	
3.610	-0.177	0.092	
3.615	0.040	0.077	
3.620	0.363	0.068	
3.625	-0.113	0.081	
3.630	-0.149	0.072	
3.635	0.267	0.047	
3.640	-0.031	0.043	
3.645	-0.230	0.032	
3.650	0.120	0.003	
3.655	0.160	-0.004	
3.660	-0.210	0.004	
3.665	0.000	-0.005	
3.670	0.306	-0.004	
3.675	-0.125	0.020	
3.680	-0.120	0.025	
3.685	0.340	0.022	
3.690	0.035	0.043	
3.695	-0.207	0.055	
3.700	0.197	0.043	
3.705	0.244	0.048	
3.710	-0.185	0.065	
3.715	0.004	0.056	
3.720	0.306	0.047	
3.725	-0.127	0.057	
3.730	-0.139	0.047	
3.735	0.305	0.029	
3.740	-0.012	0.036	
3.745	-0.230	0.035	
3.750	0.111	0.011	
3.755	0.142	0.004	
3.760	-0.226	0.007	
3.765	-0.067	-0.010	
3.770	0.210	-0.023	
3.775	-0.169	-0.017	
3.780	-0.180	-0.025	
3.785	0.250	-0.037	
3.790	-0.021	-0.023	
3.795	-0.236	-0.013	
3.800	0.102	-0.023	
3.805	0.130	-0.020	
3.810	-0.239	-0.009	
3.815	-0.055	-0.021	
3.820	0.348	-0.023	
3.825	-0.035	0.009	
3.830	0.049	0.037	
3.835	0.604	0.075	
3.840	0.189	0.147	
3.845	-0.174	0.192	
3.850	0.116	0.177	
3.855	0.068	0.143	
3.860	-0.276	0.098	
3.865	-0.093	0.032	
3.870	0.242	-0.017	
3.875	-0.154	-0.027	
3.880	-0.168	-0.037	
3.885	0.248	-0.047	
3.890	-0.015	-0.028	
3.895	-0.221	-0.014	
3.900	0.165	-0.018	
3.905	0.229	-0.001	
3.910	-0.157	0.029	
3.915	0.027	0.036	
3.920	0.384	0.045	
3.925	-0.098	0.074	
3.930	-0.124	0.077	
3.935	0.341	0.065	
3.940	0.082	0.076	
3.945	-0.185	0.082	
3.950	0.233	0.068	
3.955	0.305	0.075	
3.960	-0.127	0.098	
3.965	0.097	0.098	
3.970	0.485	0.105	
3.975	-0.026	0.138	
3.980	-0.072	0.145	
3.985	0.413	0.133	
3.990	0.133	0.143	
3.995	-0.145	0.147	
4.000	0.267	0.126	
4.005	0.325	0.126	
4.010	-0.149	0.138	
4.015	0.001	0.119	
4.020	0.349	0.098	
4.025	-0.098	0.097	
4.030	-0.133	0.079	
4.035	0.250	0.051	
4.040	-0.011	0.044	
4.045	-0.226	0.033	
4.050	0.111	0.005	
4.055	0.160	-0.003	
4.060	-0.220	0.004	
4.065	-0.064	-0.009	
4.070	0.247	-0.019	
4.075	-0.146	-0.007	
4.080	-0.172	-0.010	
4.085	0.250	-0.021	
4.090	0.000	-0.007	
4.095	-0.215	0.003	
4.100	0.111	-0.008	
4.105	0.175	-0.003	
4.110	-0.192	0.012	
4.115	-0.026	0.007	
4.120	0.291	0.005	
4.125	-0.125	0.023	
4.130	-0.166	0.022	
4.135	0.224	0.007	
4.140	-0.049	0.009	
4.145	-0.265	0.001	
4.150	0.050	-0.027	
4.155	0.114	-0.038	
4.160	-0.241	-0.035	
4.165	-0.117	-0.049	
4.170	0.160	-0.062	
4.175	-0.198	-0.056	
4.180	-0.235	-0.065	
4.185	0.113	-0.083	
4.190	-0.089	-0.081	
4.195	-0.290	-0.081	
4.200	0.000	-0.097	
4.205	0.067	-0.098	
4.210	-0.261	-0.086	
4.215	-0.120	-0.090	
4.220	0.177	-0.091	
4.225	-0.165	-0.071	
4.230	-0.134	-0.062	
4.235	0.434	-0.046	
4.240	0.300	0.018	
4.245	-0.027	0.093	
4.250	0.366	0.141	
4.255	0.303	0.185	
4.260	-0.212	0.207	
4.265	-0.102	0.170	
4.270	0.163	0.108	
4.275	-0.195	0.060	
4.280	-0.229	0.003	
4.285	0.114	-0.050	
4.290	-0.076	-0.070	
4.295	-0.273	-0.082	
4.300	0.040	-0.099	
4.305	0.125	-0.093	
4.310	-0.224	-0.069	
4.315	-0.064	-0.063	
4.320	0.255	-0.053	
4.325	-0.143	-0.024	
4.330	-0.174	-0.015	
4.335	0.248	-0.019	
4.340	0.024	-0.001	
4.345	-0.203	0.012	
4.350	0.165	0.006	
4.355	0.255	0.020	
4.360	-0.165	0.046	
4.365	0.003	0.048	
4.370	0.393	0.050	
4.375	-0.063	0.076	
4.380	-0.104	0.082	
4.385	0.384	0.075	
4.390	0.122	0.094	
4.395	-0.157	0.108	
4.400	0.265	0.098	
4.405	0.314	0.107	
4.410	-0.143	0.126	
4.415	0.024	0.115	
4.420	0.360	0.100	
4.425	-0.104	0.104	
4.430	-0.171	0.086	
4.435	0.236	0.051	
4.440	-0.011	0.038	
4.445	-0.247	0.023	
4.450	0.059	-0.009	
4.455	0.142	-0.022	
4.460	-0.227	-0.020	
4.465	-0.096	-0.034	
4.470	0.244	-0.042	
4.475	-0.140	-0.027	
4.480	-0.188	-0.025	
4.485	0.190	-0.034	
4.490	-0.041	-0.026	
4.495	-0.242	-0.023	
4.500	0.088	-0.037	
4.505	0.198	-0.032	
4.510	-0.192	-0.009	
4.515	-0.041	-0.007	
4.520	0.322	-0.003	
4.525	-0.110	0.023	
4.530	-0.165	0.028	
4.535	0.271	0.018	
4.540	0.032	0.028	
4.545	-0.212	0.034	
4.550	0.117	0.018	
4.555	0.197	0.017	
4.560	-0.218	0.027	
4.565	-0.102	0.011	
4.570	0.210	-0.009	
4.575	-0.165	-0.010	
4.580	-0.227	-0.024	
4.585	0.131	-0.050	
4.590	-0.076	-0.055	
4.595	-0.284	-0.061	
4.600	0.011	-0.082	
4.605	0.107	-0.085	
4.610	-0.246	-0.071	
4.615	-0.105	-0.074	
4.620	0.210	-0.073	
4.625	-0.157	-0.052	
4.630	-0.221	-0.047	
4.635	0.139	-0.057	
4.640	-0.050	-0.051	
4.645	-0.247	-0.049	
4.650	0.187	-0.055	
4.655	0.459	-0.021	
4.660	0.043	0.053	
4.665	0.309	0.119	
4.670	0.614	0.188	
4.675	-0.035	0.257	
4.680	-0.160	0.261	
4.685	0.172	0.206	
4.690	-0.044	0.148	
4.695	-0.268	0.083	
4.700	0.032	0.011	
4.705	0.142	-0.030	
4.710	-0.230	-0.040	
4.715	-0.102	-0.057	
4.720	0.223	-0.065	
4.725	-0.136	-0.047	
4.730	-0.177	-0.040	
4.735	0.244	-0.041	
4.740	-0.002	-0.019	
4.745	-0.230	-0.005	
4.750	0.116	-0.012	
4.755	0.251	-0.002	
4.760	-0.169	0.024	
4.765	-0.023	0.027	
4.770	0.360	0.030	
4.775	-0.070	0.055	
4.780	-0.130	0.062	
4.785	0.341	0.054	
4.790	0.136	0.072	
4.795	-0.148	0.089	
4.800	0.274	0.086	
4.805	0.387	0.105	
4.810	-0.101	0.139	
4.815	0.059	0.141	
4.820	0.448	0.138	
4.825	0.001	0.155	
4.830	-0.095	0.151	
4.835	0.349	0.129	
4.840	0.113	0.127	
4.845	-0.197	0.120	
4.850	0.139	0.088	
4.855	0.236	0.071	
4.860	-0.185	0.069	
4.865	-0.066	0.046	
4.870	0.290	0.025	
4.875	-0.114	0.029	
4.880	-0.191	0.019	
4.885	0.207	-0.002	
4.890	-0.006	-0.003	
4.895	-0.252	-0.005	
4.900	0.047	-0.026	
4.905	0.151	-0.032	
4.910	-0.217	-0.023	
4.915	-0.075	-0.031	
4.920	0.256	-0.034	
4.925	-0.120	-0.015	
4.930	-0.169	-0.010	
4.935	0.279	-0.014	
4.940	0.081	0.009	
4.945	-0.210	0.028	
4.950	0.123	0.023	
4.955	0.255	0.030	
4.960	-0.159	0.049	
4.965	-0.034	0.045	
4.970	0.352	0.041	
4.975	-0.090	0.058	
4.980	-0.174	0.056	
4.985	0.207	0.033	
4.990	-0.005	0.027	
4.995	-0.247	0.017	
5.000	0.050	-0.012	
5.005	0.158	-0.023	
5.010	-0.241	-0.019	
5.015	-0.130	-0.034	
5.020	0.184	-0.050	
5.025	-0.163	-0.045	
5.030	-0.232	-0.051	
5.035	0.145	-0.067	
5.040	-0.032	-0.062	
5.045	-0.268	-0.056	
5.050	0.017	-0.068	
5.055	0.114	-0.068	
5.060	-0.238	-0.054	
5.065	-0.107	-0.059	
5.070	0.325	-0.057	
5.075	-0.009	-0.020	
5.080	-0.023	0.014	
5.085	0.558	0.052	
5.090	0.297	0.125	
5.095	-0.160	0.184	
5.100	0.044	0.180	
5.105	0.097	0.146	
5.110	-0.265	0.101	
5.115	-0.140	0.034	
5.120	0.203	-0.021	
5.125	-0.149	-0.039	
5.130	-0.215	-0.055	
5.135	0.177	-0.071	
5.140	-0.009	-0.060	
5.145	-0.246	-0.048	
5.150	0.097	-0.051	
5.155	0.239	-0.035	
5.160	-0.175	-0.002	
5.165	-0.053	0.007	
5.170	0.348	0.013	
5.175	-0.058	0.041	
5.180	-0.133	0.051	
5.185	0.343	0.048	
5.190	0.142	0.069	
5.195	-0.168	0.088	
5.200	0.180	0.081	
5.205	0.332	0.086	
5.210	-0.140	0.106	
5.215	0.033	0.099	
5.220	0.477	0.097	
5.225	0.012	0.124	
5.230	-0.093	0.133	
5.235	0.398	0.123	
5.240	0.198	0.137	
5.245	-0.139	0.149	
5.250	0.247	0.135	
5.255	0.396	0.138	
5.260	-0.107	0.157	
5.265	0.001	0.146	
5.270	0.390	0.127	
5.275	-0.044	0.128	
5.280	-0.131	0.113	
5.285	0.328	0.085	
5.290	0.110	0.086	
5.295	-0.201	0.086	
5.300	0.114	0.062	
5.305	0.264	0.052	
5.310	-0.197	0.058	
5.315	-0.081	0.041	
5.320	0.302	0.022	
5.325	-0.105	0.028	
5.330	-0.182	0.022	
5.335	0.230	0.004	
5.340	0.053	0.009	
5.345	-0.212	0.016	
5.350	0.123	0.005	
5.355	0.290	0.014	
5.360	-0.146	0.041	
5.365	-0.029	0.045	
5.370	0.358	0.046	
5.375	-0.073	0.067	
5.380	-0.151	0.067	
5.385	0.299	0.051	
5.390	0.101	0.059	
5.395	-0.209	0.066	
5.400	0.078	0.046	
5.405	0.218	0.035	
5.410	-0.204	0.038	
5.415	-0.105	0.018	
5.420	0.247	-0.002	
5.425	-0.127	-0.000	
5.430	-0.204	-0.009	
5.435	0.177	-0.028	
5.440	0.000	-0.025	
5.445	-0.258	-0.023	
5.450	0.021	-0.040	
5.455	0.157	-0.044	
5.460	-0.230	-0.033	
5.465	-0.125	-0.041	
5.470	0.227	-0.049	
5.475	-0.151	-0.036	
5.480	-0.230	-0.037	
5.485	0.143	-0.052	
5.490	0.038	-0.046	
5.495	-0.182	-0.032	
5.500	0.270	-0.022	
5.505	0.514	0.027	
5.510	-0.067	0.103	
5.515	-0.020	0.138	
5.520	0.274	0.137	
5.525	-0.149	0.129	
5.530	-0.256	0.088	
5.535	0.123	0.027	
5.540	-0.020	-0.009	
5.545	-0.265	-0.034	
5.550	0.029	-0.064	
5.555	0.219	-0.066	
5.560	-0.182	-0.042	
5.565	-0.089	-0.033	
5.570	0.300	-0.025	
5.575	-0.095	0.003	
5.580	-0.195	0.012	
5.585	0.233	0.003	
5.590	0.068	0.013	
5.595	-0.207	0.024	
5.600	0.134	0.014	
5.605	0.334	0.026	
5.610	-0.130	0.057	
5.615	-0.011	0.065	
5.620	0.421	0.070	
5.625	-0.023	0.096	
5.630	-0.125	0.103	
5.635	0.375	0.092	
5.640	0.221	0.109	
5.645	-0.137	0.128	
5.650	0.229	0.122	
5.655	0.425	0.131	
5.660	-0.085	0.157	
5.665	0.023	0.154	
5.670	0.469	0.143	
5.675	0.029	0.158	
5.680	-0.107	0.155	
5.685	0.386	0.134	
5.690	0.212	0.140	
5.695	-0.159	0.147	
5.700	0.158	0.125	
5.705	0.303	0.113	
5.710	-0.154	0.114	
5.715	-0.049	0.091	
5.720	0.354	0.068	
5.725	-0.069	0.071	
5.730	-0.182	0.061	
5.735	0.242	0.036	
5.740	0.070	0.034	
5.745	-0.209	0.035	
5.750	0.088	0.017	
5.755	0.296	0.017	
5.760	-0.151	0.039	
5.765	-0.049	0.039	
5.770	0.383	0.039	
5.775	-0.023	0.063	
5.780	-0.131	0.073	
5.785	0.317	0.066	
5.790	0.152	0.080	
5.795	-0.168	0.094	
5.800	0.131	0.081	
5.805	0.329	0.079	
5.810	-0.133	0.094	
5.815	-0.040	0.085	
5.820	0.372	0.072	
5.825	-0.053	0.083	
5.830	-0.175	0.077	
5.835	0.233	0.052	
5.840	0.062	0.046	
5.845	-0.233	0.041	
5.850	0.046	0.014	
5.855	0.227	0.002	
5.860	-0.203	0.010	
5.865	-0.127	-0.003	
5.870	0.241	-0.018	
5.875	-0.128	-0.012	
5.880	-0.244	-0.019	
5.885	0.130	-0.041	
5.890	-0.009	-0.044	
5.895	-0.268	-0.045	
5.900	0.012	-0.061	
5.905	0.232	-0.059	
5.910	-0.148	-0.032	
5.915	0.026	-0.014	
5.920	0.637	0.022	
5.925	0.264	0.108	
5.930	-0.032	0.182	
5.935	0.340	0.210	
5.940	0.072	0.218	
5.945	-0.262	0.192	
5.950	-0.037	0.121	
5.955	0.155	0.056	
5.960	-0.224	0.016	
5.965	-0.134	-0.027	
5.970	0.236	-0.055	
5.975	-0.104	-0.047	
5.980	-0.206	-0.043	
5.985	0.192	-0.048	
5.990	0.091	-0.029	
5.995	-0.212	-0.007	
6.000	0.058	-0.007	
6.005	0.290	0.003	
6.010	-0.148	0.030	
6.015	-0.066	0.034	
6.020	0.332	0.033	
6.025	-0.049	0.051	
6.030	-0.177	0.053	
6.035	0.239	0.037	
6.040	0.146	0.043	
6.045	-0.191	0.054	
6.050	0.140	0.045	
6.055	0.375	0.053	
6.060	-0.089	0.085	
6.065	-0.018	0.093	
6.070	0.441	0.094	
6.075	0.027	0.119	
6.080	-0.122	0.126	
6.085	0.329	0.111	
6.090	0.219	0.119	
6.095	-0.159	0.128	
6.100	0.114	0.110	
6.105	0.338	0.100	
6.110	-0.122	0.107	
6.115	-0.067	0.092	
6.120	0.335	0.072	
6.125	-0.070	0.073	
6.130	-0.207	0.059	
6.135	0.166	0.027	
6.140	0.040	0.014	
6.145	-0.241	0.005	
6.150	0.009	-0.020	
6.155	0.227	-0.029	
6.160	-0.185	-0.015	
6.165	-0.133	-0.018	
6.170	0.262	-0.025	
6.175	-0.087	-0.010	
6.180	-0.221	-0.006	
6.185	0.166	-0.020	
6.190	0.091	-0.014	
6.195	-0.235	-0.003	
6.200	0.044	-0.013	
6.205	0.297	-0.008	
6.210	-0.154	0.018	
6.215	-0.076	0.024	
6.220	0.357	0.024	
6.225	-0.043	0.047	
6.230	-0.178	0.054	
6.235	0.227	0.040	
6.240	0.082	0.042	
6.245	-0.247	0.042	
6.250	-0.021	0.014	
6.255	0.161	-0.008	
6.260	-0.226	-0.014	
6.265	-0.182	-0.036	
6.270	0.151	-0.060	
6.275	-0.153	-0.063	
6.280	-0.294	-0.073	
6.285	0.032	-0.097	
6.290	-0.043	-0.104	
6.295	-0.303	-0.104	
6.300	-0.067	-0.118	
6.305	0.122	-0.118	
6.310	-0.256	-0.100	
6.315	-0.212	-0.100	
6.320	0.120	-0.108	
6.325	-0.154	-0.097	
6.330	-0.244	-0.094	
6.335	0.273	-0.092	
6.340	0.331	-0.045	
6.345	-0.015	0.029	
6.350	0.326	0.089	
6.355	0.370	0.148	
6.360	-0.210	0.190	
6.365	-0.198	0.164	
6.370	0.113	0.098	
6.375	-0.168	0.041	
6.380	-0.291	-0.018	
6.385	0.021	-0.078	
6.390	-0.024	-0.105	
6.395	-0.294	-0.114	
6.400	-0.060	-0.128	
6.405	0.172	-0.123	
6.410	-0.191	-0.093	
6.415	-0.124	-0.077	
6.420	0.274	-0.062	
6.425	-0.076	-0.027	
6.430	-0.207	-0.009	
6.435	0.207	-0.012	
6.440	0.131	0.005	
6.445	-0.209	0.024	
6.450	0.047	0.018	
6.455	0.294	0.020	
6.460	-0.137	0.040	
6.465	-0.084	0.040	
6.470	0.325	0.033	
6.475	-0.023	0.049	
6.480	-0.146	0.054	
6.485	0.346	0.047	
6.490	0.248	0.072	
6.495	-0.139	0.104	
6.500	0.186	0.107	
6.505	0.422	0.119	
6.510	-0.090	0.147	
6.515	-0.043	0.142	
6.520	0.401	0.124	
6.525	0.009	0.128	
6.530	-0.168	0.118	
6.535	0.247	0.087	
6.540	0.117	0.077	
6.545	-0.230	0.069	
6.550	0.018	0.037	
6.555	0.232	0.017	
6.560	-0.182	0.017	
6.565	-0.157	0.001	
6.570	0.232	-0.019	
6.575	-0.102	-0.016	
6.580	-0.242	-0.022	
6.585	0.137	-0.041	
6.590	0.049	-0.039	
6.595	-0.265	-0.033	
6.600	-0.037	-0.047	
6.605	0.221	-0.051	
6.610	-0.178	-0.033	
6.615	-0.131	-0.031	
6.620	0.291	-0.030	
6.625	-0.044	-0.006	
6.630	-0.207	0.007	
6.635	0.192	-0.000	
6.640	0.145	0.011	
6.645	-0.183	0.028	
6.650	0.094	0.026	
6.655	0.332	0.035	
6.660	-0.149	0.062	
6.665	-0.114	0.059	
6.670	0.259	0.042	
6.675	-0.099	0.040	
6.680	-0.252	0.022	
6.685	0.091	-0.014	
6.690	0.041	-0.030	
6.695	-0.267	-0.037	
6.700	-0.017	-0.057	
6.705	0.183	-0.062	
6.710	-0.212	-0.046	
6.715	-0.165	-0.049	
6.720	0.169	-0.058	
6.725	-0.125	-0.050	
6.730	-0.264	-0.053	
6.735	0.114	-0.069	
6.740	0.046	-0.064	
6.745	-0.296	-0.054	
6.750	-0.099	-0.069	
6.755	0.178	-0.078	
6.760	-0.154	-0.063	
6.765	-0.023	-0.051	
6.770	0.657	-0.015	
6.775	0.343	0.081	
6.780	-0.011	0.175	
6.785	0.358	0.220	
6.790	0.125	0.240	
6.795	-0.274	0.221	
6.800	-0.079	0.147	
6.805	0.146	0.071	
6.810	-0.221	0.020	
6.815	-0.175	-0.031	
6.820	0.215	-0.066	
6.825	-0.101	-0.065	
6.830	-0.239	-0.062	
6.835	0.131	-0.070	
6.840	0.081	-0.056	
6.845	-0.235	-0.037	
6.850	-0.009	-0.038	
6.855	0.276	-0.031	
6.860	-0.156	-0.004	
6.865	-0.130	0.002	
6.870	0.314	0.001	
6.875	-0.026	0.021	
6.880	-0.185	0.031	
6.885	0.235	0.023	
6.890	0.175	0.036	
6.895	-0.188	0.054	
6.900	0.072	0.047	
6.905	0.352	0.049	
6.910	-0.104	0.072	
6.915	-0.055	0.074	
6.920	0.410	0.071	
6.925	0.043	0.093	
6.930	-0.151	0.103	
6.935	0.273	0.089	
6.940	0.215	0.094	
6.945	-0.174	0.104	
6.950	0.067	0.086	
6.955	0.337	0.075	
6.960	-0.146	0.084	
6.965	-0.124	0.068	
6.970	0.288	0.044	
6.975	-0.053	0.042	
6.980	-0.221	0.031	
6.985	0.183	0.006	
6.990	0.125	0.005	
6.995	-0.226	0.013	
7.000	-0.012	-0.001	
7.005	0.248	-0.008	
7.010	-0.166	0.005	
7.015	-0.151	-0.001	
7.020	0.242	-0.014	
7.025	-0.069	-0.005	
7.030	-0.226	-0.006	
7.035	0.155	-0.022	
7.040	0.139	-0.015	
7.045	-0.195	0.002	
7.050	0.050	0.000	
7.055	0.349	0.011	
7.060	-0.122	0.044	
7.065	-0.113	0.051	
7.070	0.326	0.044	
7.075	0.027	0.059	
7.080	-0.153	0.066	
7.085	0.251	0.056	
7.090	0.210	0.066	
7.095	-0.188	0.082	
7.100	0.044	0.069	
7.105	0.300	0.059	
7.110	-0.145	0.066	
7.115	-0.140	0.052	
7.120	0.247	0.027	
7.125	-0.073	0.022	
7.130	-0.246	0.009	
7.135	0.097	-0.020	
7.140	0.062	-0.030	
7.145	-0.255	-0.031	
7.150	-0.053	-0.049	
7.155	0.215	-0.056	
7.160	-0.188	-0.040	
7.165	-0.191	-0.041	
7.170	0.146	-0.053	
7.175	-0.124	-0.051	
7.180	-0.277	-0.057	
7.185	0.062	-0.079	
7.190	0.120	-0.076	
7.195	-0.157	-0.054	
7.200	0.233	-0.031	
7.205	0.628	0.029	
7.210	0.011	0.122	
7.215	-0.081	0.172	
7.220	0.274	0.170	
7.225	-0.064	0.157	
7.230	-0.281	0.115	
7.235	0.027	0.046	
7.240	0.055	-0.005	
7.245	-0.246	-0.034	
7.250	-0.043	-0.064	
7.255	0.248	-0.071	
7.260	-0.143	-0.047	
7.265	-0.124	-0.034	
7.270	0.308	-0.025	
7.275	-0.006	0.006	
7.280	-0.197	0.025	
7.285	0.200	0.021	
7.290	0.166	0.031	
7.295	-0.198	0.046	
7.300	0.011	0.035	
7.305	0.309	0.029	
7.310	-0.120	0.044	
7.315	-0.107	0.042	
7.320	0.319	0.032	
7.325	0.018	0.047	
7.330	-0.168	0.054	
7.335	0.277	0.046	
7.340	0.293	0.065	
7.345	-0.142	0.095	
7.350	0.101	0.098	
7.355	0.386	0.101	
7.360	-0.067	0.122	
7.365	-0.060	0.118	
7.370	0.430	0.106	
7.375	0.108	0.122	
7.380	-0.146	0.131	
7.385	0.242	0.113	
7.390	0.253	0.111	
7.395	-0.162	0.117	
7.400	0.041	0.097	
7.405	0.363	0.082	
7.410	-0.096	0.090	
7.415	-0.122	0.080	
7.420	0.297	0.058	
7.425	-0.005	0.058	
7.430	-0.188	0.052	
7.435	0.184	0.031	
7.440	0.171	0.031	
7.445	-0.200	0.040	
7.450	0.006	0.027	
7.455	0.344	0.023	
7.460	-0.108	0.044	
7.465	-0.114	0.046	
7.470	0.323	0.039	
7.475	0.038	0.054	
7.480	-0.169	0.062	
7.485	0.219	0.051	
7.490	0.248	0.060	
7.495	-0.157	0.079	
7.500	0.035	0.073	
7.505	0.373	0.069	
7.510	-0.078	0.087	
7.515	-0.090	0.086	
7.520	0.332	0.073	
7.525	0.029	0.081	
7.530	-0.188	0.079	
7.535	0.174	0.056	
7.540	0.203	0.051	
7.545	-0.201	0.056	
7.550	-0.038	0.038	
7.555	0.241	0.020	
7.560	-0.111	0.023	
7.565	-0.130	0.015	
7.570	0.026	-0.008	
7.575	-0.064	-0.024	
7.580	-0.125	-0.038	
7.585	0.008	-0.052	
7.590	0.003	-0.054	
7.595	-0.136	-0.051	
7.600	-0.069	-0.056	
7.605	0.030	-0.059	
7.610	-0.102	-0.055	
7.615	-0.070	-0.054	
7.620	0.186	-0.046	
7.625	0.183	-0.011	
7.630	0.168	0.041	
7.635	0.312	0.097	
7.640	0.198	0.153	
7.645	-0.087	0.181	
7.650	-0.063	0.159	
7.655	0.004	0.110	
7.660	-0.143	0.056	
7.665	-0.149	-0.001	
7.670	0.003	-0.049	
7.675	-0.049	-0.072	
7.680	-0.139	-0.081	
7.685	0.001	-0.086	
7.690	0.038	-0.077	
7.695	-0.089	-0.058	
7.700	0.011	-0.045	
7.705	0.143	-0.026	
7.710	-0.026	0.000	
7.715	-0.043	0.015	
7.720	0.143	0.022	
7.725	0.047	0.034	
7.730	-0.061	0.042	
7.735	0.105	0.040	
7.740	0.142	0.044	
7.745	-0.029	0.055	
7.750	0.061	0.057	
7.755	0.198	0.061	
7.760	0.026	0.074	
7.765	0.021	0.079	
7.770	0.245	0.081	
7.775	0.111	0.096	
7.780	-0.009	0.107	
7.785	0.212	0.107	
7.790	0.218	0.116	
7.795	-0.024	0.128	
7.800	0.108	0.123	
7.805	0.233	0.117	
7.810	-0.003	0.119	
7.815	-0.021	0.108	
7.820	0.178	0.088	
7.825	0.006	0.078	
7.830	-0.093	0.063	
7.835	0.117	0.041	
7.840	0.130	0.035	
7.845	-0.092	0.039	
7.850	-0.002	0.031	
7.855	0.139	0.024	
7.860	-0.040	0.026	
7.865	-0.064	0.023	
7.870	0.090	0.013	
7.875	-0.002	0.011	
7.880	-0.098	0.008	
7.885	0.041	-0.003	
7.890	0.091	-0.004	
7.895	-0.082	0.003	
7.900	0.003	0.002	
7.905	0.165	0.006	
7.910	0.000	0.022	
7.915	-0.009	0.033	
7.920	0.172	0.039	
7.925	0.067	0.054	
7.930	-0.044	0.063	
7.935	0.143	0.062	
7.940	0.119	0.066	
7.945	-0.072	0.070	
7.950	0.155	0.066	
7.955	0.380	0.080	
7.960	-0.117	0.109	
7.965	-0.185	0.101	
7.970	0.149	0.063	
7.975	-0.084	0.034	
7.980	-0.284	-0.000	
7.985	-0.018	-0.048	
7.990	0.037	-0.076	
7.995	-0.265	-0.085	
8.000	-0.117	-0.102	
8.005	0.174	-0.107	
8.010	-0.162	-0.086	
8.015	-0.212	-0.077	
8.020	0.126	-0.079	
8.025	-0.085	-0.068	
8.030	-0.282	-0.065	
8.035	0.044	-0.079	
8.040	0.247	-0.069	
8.045	-0.069	-0.030	
8.050	0.259	0.012	
8.055	0.601	0.079	
8.060	0.001	0.165	
8.065	-0.125	0.198	
8.070	0.203	0.176	
8.075	-0.056	0.143	
8.080	-0.290	0.091	
8.085	0.009	0.020	
8.090	0.119	-0.026	
8.095	-0.241	-0.043	
8.100	-0.108	-0.066	
8.105	0.207	-0.076	
8.110	-0.160	-0.060	
8.115	-0.182	-0.055	
8.120	0.175	-0.058	
8.125	-0.026	-0.043	
8.130	-0.238	-0.032	
8.135	0.085	-0.040	
8.140	0.223	-0.030	
8.145	-0.192	-0.004	
8.150	-0.050	0.000	
8.155	0.323	0.004	
8.160	-0.090	0.028	
8.165	-0.142	0.035	
8.170	0.302	0.028	
8.175	0.067	0.044	
8.180	-0.177	0.056	
8.185	0.184	0.047	
8.190	0.315	0.057	
8.195	-0.136	0.083	
8.200	0.029	0.084	
8.205	0.416	0.084	
8.210	-0.035	0.107	
8.215	-0.107	0.110	
8.220	0.349	0.095	
8.225	0.111	0.103	
8.230	-0.188	0.106	
8.235	0.161	0.083	
8.240	0.242	0.073	
8.245	-0.194	0.076	
8.250	-0.067	0.054	
8.255	0.238	0.029	
8.260	-0.154	0.023	
8.265	-0.215	0.002	
8.270	0.184	-0.026	
8.275	-0.027	-0.030	
8.280	-0.256	-0.032	
8.285	0.027	-0.051	
8.290	0.128	-0.054	
8.295	-0.232	-0.043	
8.300	-0.093	-0.050	
8.305	0.256	-0.051	
8.310	-0.137	-0.030	
8.315	-0.213	-0.024	
8.320	0.190	-0.034	
8.325	-0.003	-0.025	
8.330	-0.226	-0.018	
8.335	0.113	-0.027	
8.340	0.221	-0.016	
8.345	-0.188	0.009	
8.350	-0.034	0.011	
8.355	0.355	0.015	
8.360	-0.089	0.041	
8.365	-0.168	0.047	
8.370	0.207	0.031	
8.375	-0.011	0.028	
8.380	-0.255	0.019	
8.385	0.040	-0.012	
8.390	0.133	-0.026	
8.395	-0.249	-0.026	
8.400	-0.137	-0.044	
8.405	0.172	-0.061	
8.410	-0.200	-0.058	
8.415	-0.261	-0.068	
8.420	0.079	-0.090	
8.425	-0.075	-0.093	
8.430	-0.297	-0.094	
8.435	-0.021	-0.109	
8.440	0.090	-0.108	
8.445	-0.258	-0.092	
8.450	-0.153	-0.094	
8.455	0.152	-0.096	
8.460	-0.163	-0.080	
8.465	-0.195	-0.075	
8.470	0.352	-0.067	
8.475	0.314	-0.013	
8.480	-0.008	0.060	
8.485	0.430	0.119	
8.490	0.418	0.185	
8.495	-0.169	0.233	
8.500	-0.111	0.213	
8.505	0.171	0.153	
8.510	-0.191	0.097	
8.515	-0.253	0.031	
8.520	0.113	-0.035	
8.525	-0.047	-0.064	
8.530	-0.284	-0.079	
8.535	0.000	-0.100	
8.540	0.142	-0.098	
8.545	-0.239	-0.077	
8.550	-0.111	-0.074	
8.555	0.270	-0.067	
8.560	-0.110	-0.037	
8.565	-0.188	-0.021	
8.570	0.209	-0.023	
8.575	0.024	-0.007	
8.580	-0.209	0.004	
8.585	0.116	-0.004	
8.590	0.267	0.006	
8.595	-0.163	0.032	
8.600	-0.040	0.035	
8.605	0.361	0.035	
8.610	-0.058	0.057	
8.615	-0.127	0.063	
8.620	0.355	0.057	
8.625	0.177	0.078	
8.630	-0.169	0.099	
8.635	0.192	0.092	
8.640	0.369	0.099	
8.645	-0.125	0.121	
8.650	-0.008	0.115	
8.655	0.381	0.102	
8.660	-0.066	0.108	
8.665	-0.168	0.095	
8.670	0.221	0.063	
8.675	0.015	0.049	
8.680	-0.246	0.033	
8.685	0.030	-0.001	
8.690	0.158	-0.019	
8.695	-0.217	-0.018	
8.700	-0.111	-0.032	
8.705	0.213	-0.044	
8.710	-0.120	-0.032	
8.715	-0.201	-0.031	
8.720	0.163	-0.042	
8.725	0.038	-0.031	
8.730	-0.201	-0.019	
8.735	0.079	-0.022	
8.740	0.230	-0.011	
8.745	-0.163	0.013	
8.750	-0.038	0.017	
8.755	0.322	0.019	
8.760	-0.060	0.042	
8.765	-0.143	0.048	
8.770	0.264	0.039	
8.775	0.116	0.050	
8.780	-0.156	0.062	
8.785	0.157	0.054	
8.790	0.328	0.063	
8.795	-0.116	0.088	
8.800	-0.024	0.087	
8.805	0.328	0.078	
8.810	-0.066	0.086	
8.815	-0.166	0.075	
8.820	0.183	0.046	
8.825	0.021	0.033	
8.830	-0.232	0.021	
8.835	0.014	-0.009	
8.840	0.131	-0.026	
8.845	-0.221	-0.026	
8.850	-0.124	-0.042	
8.855	0.201	-0.054	
8.860	-0.145	-0.044	
8.865	-0.221	-0.045	
8.870	0.116	-0.059	
8.875	-0.021	-0.056	
8.880	-0.267	-0.053	
8.885	-0.027	-0.068	
8.890	0.183	-0.070	
8.895	-0.120	-0.048	
8.900	0.067	-0.028	
8.905	0.602	0.016	
8.910	0.255	0.105	
8.915	-0.027	0.179	
8.920	0.322	0.207	
8.925	0.050	0.213	
8.930	-0.256	0.184	
8.935	-0.055	0.112	
8.940	0.101	0.044	
8.945	-0.227	-0.002	
8.950	-0.131	-0.046	
8.955	0.206	-0.072	
8.960	-0.102	-0.064	
8.965	-0.183	-0.056	
8.970	0.187	-0.055	
8.975	0.050	-0.033	
8.980	-0.203	-0.012	
8.985	0.078	-0.013	
8.990	0.262	-0.001	
8.995	-0.156	0.026	
9.000	-0.064	0.029	
9.005	0.340	0.028	
9.010	-0.047	0.048	
9.015	-0.145	0.054	
9.020	0.262	0.043	
9.025	0.177	0.056	
9.030	-0.145	0.073	
9.035	0.187	0.072	
9.040	0.364	0.085	
9.045	-0.085	0.114	
9.050	0.014	0.117	
9.055	0.447	0.115	
9.060	0.012	0.135	
9.065	-0.095	0.137	
9.070	0.366	0.122	
9.075	0.232	0.132	
9.080	-0.127	0.145	
9.085	0.181	0.132	
9.090	0.344	0.128	
9.095	-0.099	0.138	
9.100	-0.047	0.122	
9.105	0.308	0.097	
9.110	-0.064	0.090	
9.115	-0.175	0.070	
9.120	0.161	0.036	
9.125	0.067	0.022	
9.130	-0.207	0.015	
9.135	0.053	-0.004	
9.140	0.242	-0.007	
9.145	-0.156	0.011	
9.150	-0.085	0.011	
9.155	0.283	0.006	
9.160	-0.066	0.022	
9.165	-0.177	0.025	
9.170	0.190	0.011	
9.175	0.108	0.017	
9.180	-0.154	0.028	
9.185	0.090	0.023	
9.190	0.300	0.032	
9.195	-0.116	0.057	
9.200	-0.040	0.060	
9.205	0.361	0.058	
9.210	0.004	0.078	
9.215	-0.124	0.085	
9.220	0.268	0.074	
9.225	0.151	0.081	
9.230	-0.169	0.088	
9.235	0.078	0.070	
9.240	0.256	0.059	
9.245	-0.160	0.063	
9.250	-0.111	0.045	
9.255	0.232	0.021	
9.260	-0.101	0.017	
9.265	-0.218	0.003	
9.270	0.107	-0.024	
9.275	0.041	-0.031	
9.280	-0.218	-0.031	
9.285	0.011	-0.042	
9.290	0.194	-0.040	
9.295	-0.174	-0.022	
9.300	-0.113	-0.021	
9.305	0.187	-0.026	
9.310	-0.107	-0.017	
9.315	-0.206	-0.020	
9.320	0.195	-0.033	
9.325	0.194	-0.015	
9.330	-0.047	0.021	
9.335	0.361	0.056	
9.340	0.491	0.116	
9.345	-0.069	0.184	
9.350	-0.079	0.195	
9.355	0.200	0.164	
9.360	-0.111	0.128	
9.365	-0.226	0.075	
9.370	0.082	0.013	
9.375	0.030	-0.021	
9.380	-0.221	-0.038	
9.385	0.009	-0.058	
9.390	0.230	-0.055	
9.395	-0.146	-0.029	
9.400	-0.081	-0.018	
9.405	0.287	-0.010	
9.410	-0.032	0.017	
9.415	-0.148	0.031	
9.420	0.181	0.025	
9.425	0.084	0.031	
9.430	-0.189	0.036	
9.435	0.078	0.022	
9.440	0.312	0.023	
9.445	-0.108	0.047	
9.450	-0.047	0.053	
9.455	0.348	0.052	
9.460	0.014	0.073	
9.465	-0.117	0.081	
9.470	0.288	0.074	
9.475	0.201	0.087	
9.480	-0.145	0.102	
9.485	0.090	0.091	
9.490	0.337	0.086	
9.495	-0.079	0.099	
9.500	-0.021	0.095	
9.505	0.372	0.086	
9.510	0.001	0.100	
9.515	-0.137	0.099	
9.520	0.236	0.079	
9.525	0.136	0.076	
9.530	-0.183	0.075	
9.535	0.035	0.052	
9.540	0.242	0.037	
9.545	-0.143	0.040	
9.550	-0.116	0.027	
9.555	0.207	0.008	
9.560	-0.085	0.007	
9.565	-0.195	-0.002	
9.570	0.140	-0.022	
9.575	0.059	-0.021	
9.580	-0.215	-0.014	
9.585	0.015	-0.025	
9.590	0.215	-0.024	
9.595	-0.137	-0.005	
9.600	-0.087	-0.002	
9.605	0.271	-0.001	
9.610	-0.024	0.019	
9.615	-0.133	0.029	
9.620	0.242	0.027	
9.625	0.136	0.043	
9.630	-0.169	0.059	
9.635	0.099	0.051	
9.640	0.273	0.052	
9.645	-0.122	0.067	
9.650	-0.081	0.059	
9.655	0.291	0.045	
9.660	-0.060	0.050	
9.665	-0.220	0.041	
9.670	0.113	0.011	
9.675	0.033	-0.004	
9.680	-0.247	-0.013	
9.685	-0.056	-0.040	
9.690	0.139	-0.055	
9.695	-0.212	-0.053	
9.700	-0.165	-0.062	
9.705	0.186	-0.072	
9.710	-0.105	-0.059	
9.715	-0.233	-0.053	
9.720	0.102	-0.062	
9.725	0.033	-0.055	
9.730	-0.242	-0.045	
9.735	-0.011	-0.053	
9.740	0.279	-0.046	
9.745	-0.061	-0.012	
9.750	0.090	0.018	
9.755	0.614	0.064	
9.760	0.181	0.143	
9.765	-0.098	0.197	
9.770	0.195	0.195	
9.775	0.049	0.174	
9.780	-0.271	0.132	
9.785	-0.063	0.062	
9.790	0.134	0.004	
9.795	-0.209	-0.026	
9.800	-0.151	-0.056	
9.805	0.194	-0.075	
9.810	-0.084	-0.063	
9.815	-0.209	-0.054	
9.820	0.133	-0.057	
9.825	0.079	-0.042	
9.830	-0.209	-0.023	
9.835	0.021	-0.024	
9.840	0.236	-0.017	
9.845	-0.133	0.007	
9.850	-0.105	0.011	
9.855	0.247	0.006	
9.860	-0.046	0.019	
9.865	-0.169	0.021	
9.870	0.215	0.010	
9.875	0.161	0.022	
9.880	-0.165	0.042	
9.885	0.110	0.041	
9.890	0.373	0.052	
9.895	-0.075	0.085	
9.900	-0.020	0.094	
9.905	0.445	0.097	
9.910	0.085	0.124	
9.915	-0.128	0.137	
9.920	0.264	0.123	
9.925	0.224	0.122	
9.930	-0.162	0.124	
9.935	0.055	0.100	
9.940	0.300	0.082	
9.945	-0.146	0.081	
9.950	-0.133	0.060	
9.955	0.230	0.030	
9.960	-0.107	0.020	
9.965	-0.265	-0.000	
9.970	0.049	-0.037	
9.975	0.011	-0.056	
9.980	-0.281	-0.064	
9.985	-0.067	-0.085	
9.990	0.166	-0.091	
9.995	-0.206	-0.075	
10.000	-0.185	-0.073	
10.005	0.168	-0.077	
10.010	-0.105	-0.063	
10.015	-0.255	-0.058	
10.020	0.085	-0.069	
10.025	0.064	-0.063	
10.030	-0.230	-0.049	
10.035	0.012	-0.051	
10.040	0.293	-0.038	
10.045	-0.134	-0.004	
10.050	-0.105	0.010	
10.055	0.329	0.014	
10.060	0.046	0.042	
10.065	-0.117	0.061	
10.070	0.059	0.054	
10.075	0.011	0.040	
10.080	-0.171	0.022	
10.085	-0.046	-0.008	
10.090	0.049	-0.031	
10.095	-0.197	-0.044	
10.100	-0.172	-0.066	
10.105	0.070	-0.086	
10.110	-0.102	-0.086	
10.115	-0.227	-0.087	
10.120	0.003	-0.097	
10.125	0.000	-0.094	
10.130	-0.238	-0.086	
10.135	-0.072	-0.092	
10.140	0.148	-0.088	
10.145	-0.169	-0.068	
10.150	-0.166	-0.062	
10.155	0.125	-0.065	
10.160	-0.128	-0.056	
10.165	-0.262	-0.060	
10.170	0.279	-0.068	
10.175	0.431	-0.026	
10.180	-0.023	0.051	
10.185	0.328	0.113	
10.190	0.556	0.177	
10.195	-0.125	0.236	
10.200	-0.197	0.227	
10.205	0.181	0.165	
10.210	-0.127	0.106	
10.215	-0.314	0.040	
10.220	0.029	-0.034	
10.225	0.030	-0.074	
10.230	-0.299	-0.090	
10.235	-0.096	-0.112	
10.240	0.206	-0.115	
10.245	-0.200	-0.090	
10.250	-0.197	-0.079	
10.255	0.226	-0.076	
10.260	-0.063	-0.052	
10.265	-0.262	-0.038	
10.270	0.107	-0.046	
10.275	0.142	-0.037	
10.280	-0.223	-0.018	
10.285	-0.008	-0.020	
10.290	0.325	-0.013	
10.295	-0.120	0.017	
10.300	-0.130	0.026	
10.305	0.337	0.024	
10.310	0.038	0.045	
10.315	-0.169	0.059	
10.320	0.235	0.051	
10.325	0.287	0.065	
10.330	-0.131	0.091	
10.335	0.126	0.094	
10.340	0.451	0.105	
10.345	-0.055	0.135	
10.350	-0.070	0.138	
10.355	0.357	0.121	
10.360	0.035	0.122	
10.365	-0.166	0.112	
10.370	0.149	0.079	
10.375	0.113	0.060	
10.380	-0.201	0.047	
10.385	-0.034	0.018	
10.390	0.160	-0.005	
10.395	-0.156	-0.010	
10.400	-0.149	-0.024	
10.405	0.168	-0.040	
10.410	-0.046	-0.034	
10.415	-0.185	-0.029	
10.420	0.084	-0.037	
10.425	0.055	-0.033	
10.430	-0.203	-0.025	
10.435	-0.047	-0.035	
10.440	0.207	-0.037	
10.445	-0.131	-0.021	
10.450	-0.122	-0.017	
10.455	0.242	-0.018	
10.460	0.024	0.002	
10.465	-0.139	0.019	
10.470	0.133	0.018	
10.475	0.166	0.028	
10.480	-0.119	0.044	
10.485	0.053	0.042	
10.490	0.293	0.047	
10.495	-0.037	0.068	
10.500	-0.041	0.074	
10.505	0.218	0.068	
10.510	-0.015	0.070	
10.515	-0.146	0.060	
10.520	0.017	0.030	
10.525	-0.011	0.005	
10.530	-0.166	-0.017	
10.535	-0.053	-0.043	
10.540	0.029	-0.059	
10.545	-0.131	-0.062	
10.550	-0.119	-0.068	
10.555	0.035	-0.074	
10.560	-0.089	-0.070	
10.565	-0.160	-0.069	
10.570	0.003	-0.074	
10.575	-0.018	-0.071	
10.580	-0.169	-0.066	
10.585	-0.095	-0.072	
10.590	0.004	-0.078	
10.595	-0.082	-0.074	
10.600	0.037	-0.065	
10.605	0.442	-0.028	
10.610	0.390	0.056	
10.615	0.183	0.151	
10.620	0.262	0.218	
10.625	0.084	0.246	
10.630	-0.149	0.228	
10.635	-0.084	0.163	
10.640	-0.015	0.086	
10.645	-0.143	0.020	
10.650	-0.116	-0.035	
10.655	0.021	-0.072	
10.660	-0.079	-0.084	
10.665	-0.151	-0.088	
10.670	-0.003	-0.091	
10.675	0.012	-0.083	
10.680	-0.127	-0.068	
10.685	-0.011	-0.060	
10.690	0.149	-0.045	
10.695	-0.093	-0.020	
10.700	-0.070	-0.009	
10.705	0.184	-0.004	
10.710	-0.020	0.012	
10.715	-0.142	0.017	
10.720	0.163	0.011	
10.725	0.181	0.022	
10.730	-0.104	0.043	
10.735	0.065	0.047	
10.740	0.274	0.055	
10.745	-0.063	0.074	
10.750	-0.029	0.075	
10.755	0.344	0.072	
10.760	0.113	0.093	
10.765	-0.081	0.109	
10.770	0.290	0.107	
10.775	0.320	0.125	
10.780	-0.064	0.150	
10.785	0.165	0.151	
10.790	0.407	0.155	
10.795	-0.032	0.172	
10.800	-0.058	0.162	
10.805	0.319	0.135	
10.810	0.061	0.126	
10.815	-0.124	0.113	
10.820	0.200	0.087	
10.825	0.206	0.080	
10.830	-0.117	0.084	
10.835	0.050	0.072	
10.840	0.253	0.064	
10.845	-0.073	0.070	
10.850	-0.082	0.061	
10.855	0.247	0.046	
10.860	0.038	0.051	
10.865	-0.134	0.053	
10.870	0.187	0.042	
10.875	0.216	0.050	
10.880	-0.093	0.069	
10.885	0.085	0.071	
10.890	0.329	0.078	
10.895	-0.014	0.100	
10.900	-0.002	0.107	
10.905	0.367	0.106	
10.910	0.161	0.128	
10.915	-0.058	0.144	
10.920	0.204	0.137	
10.925	0.178	0.133	
10.930	-0.120	0.126	
10.935	0.029	0.098	
10.940	0.219	0.074	
10.945	-0.099	0.065	
10.950	-0.110	0.045	
10.955	0.192	0.020	
10.960	-0.012	0.017	
10.965	-0.175	0.012	
10.970	0.049	-0.008	
10.975	0.088	-0.015	
10.980	-0.154	-0.013	
10.985	-0.027	-0.021	
10.990	0.178	-0.022	
10.995	-0.095	-0.008	
11.000	-0.130	-0.006	
11.005	0.101	-0.016	
11.010	-0.044	-0.016	
11.015	-0.137	-0.019	
11.020	0.192	-0.023	
11.025	0.376	0.008	
11.030	0.145	0.072	
11.035	0.328	0.136	
11.040	0.445	0.200	
11.045	-0.005	0.250	
11.050	-0.096	0.245	
11.055	0.081	0.191	
11.060	-0.073	0.129	
11.065	-0.204	0.063	
11.070	-0.011	-0.004	
11.075	0.038	-0.045	
11.080	-0.171	-0.062	
11.085	-0.064	-0.076	
11.090	0.142	-0.076	
11.095	-0.066	-0.055	
11.100	-0.085	-0.038	
11.105	0.137	-0.027	
11.110	0.012	-0.007	
11.115	-0.104	0.006	
11.120	0.128	0.009	
11.125	0.140	0.022	
11.130	-0.093	0.039	
11.135	0.027	0.039	
11.140	0.224	0.041	
11.145	-0.009	0.055	
11.150	-0.012	0.061	
11.155	0.216	0.061	
11.160	0.110	0.075	
11.165	-0.032	0.086	
11.170	0.177	0.086	
11.175	0.210	0.095	
11.180	-0.002	0.109	
11.185	0.114	0.111	
11.190	0.258	0.113	
11.195	0.021	0.124	
11.200	-0.008	0.120	
11.205	0.197	0.105	
11.210	0.065	0.099	
11.215	-0.063	0.090	
11.220	0.075	0.070	
11.225	0.062	0.054	
11.230	-0.102	0.040	
11.235	-0.037	0.018	
11.240	0.093	0.000	
11.245	-0.078	-0.006	
11.250	-0.089	-0.014	
11.255	0.062	-0.025	
11.260	-0.056	-0.026	
11.265	-0.146	-0.031	
11.270	-0.011	-0.045	
11.275	0.017	-0.050	
11.280	-0.134	-0.048	
11.285	-0.046	-0.052	
11.290	0.065	-0.052	
11.295	-0.099	-0.043	
11.300	-0.096	-0.041	
11.305	0.101	-0.041	
11.310	-0.041	-0.031	
11.315	-0.162	-0.027	
11.320	0.058	-0.034	
11.325	0.099	-0.029	
11.330	-0.142	-0.016	
11.335	-0.017	-0.016	
11.340	0.189	-0.012	
11.345	-0.087	0.005	
11.350	-0.130	0.007	
11.355	0.126	-0.004	
11.360	-0.058	-0.005	
11.365	-0.218	-0.014	
11.370	0.004	-0.039	
11.375	0.020	-0.053	
11.380	-0.229	-0.058	
11.385	-0.092	-0.074	
11.390	0.146	-0.081	
11.395	-0.142	-0.067	
11.400	-0.180	-0.062	
11.405	0.105	-0.066	
11.410	-0.050	-0.057	
11.415	-0.206	-0.052	
11.420	0.000	-0.061	
11.425	0.026	-0.062	
11.430	-0.197	-0.058	
11.435	-0.104	-0.067	
11.440	0.099	-0.073	
11.445	0.027	-0.057	
11.450	0.123	-0.026	
11.455	0.376	0.024	
11.460	0.166	0.093	
11.465	-0.056	0.139	
11.470	0.008	0.139	
11.475	-0.017	0.111	
11.480	-0.168	0.067	
11.485	-0.110	0.012	
11.490	-0.009	-0.035	
11.495	-0.110	-0.063	
11.500	-0.105	-0.081	
11.505	0.027	-0.088	
11.510	-0.060	-0.080	
11.515	-0.140	-0.072	
11.520	0.015	-0.070	
11.525	0.011	-0.061	
11.530	-0.149	-0.050	
11.535	0.043	-0.047	
11.540	0.344	-0.024	
11.545	-0.072	0.022	
11.550	-0.131	0.044	
11.555	0.238	0.042	
11.560	0.049	0.052	
11.565	-0.175	0.054	
11.570	0.120	0.037	
11.575	0.201	0.034	
11.580	-0.149	0.043	
11.585	-0.003	0.035	
11.590	0.331	0.033	
11.595	-0.052	0.054	
11.600	-0.105	0.060	
11.605	0.297	0.053	
11.610	0.111	0.068	
11.615	-0.151	0.080	
11.620	0.166	0.069	
11.625	0.247	0.071	
11.630	-0.145	0.083	
11.635	-0.009	0.071	
11.640	0.303	0.058	
11.645	-0.101	0.064	
11.650	-0.171	0.052	
11.655	0.169	0.024	
11.660	-0.027	0.012	
11.665	-0.230	-0.001	
11.670	0.032	-0.029	
11.675	0.114	-0.039	
11.680	-0.217	-0.035	
11.685	-0.102	-0.046	
11.690	0.187	-0.054	
11.695	-0.134	-0.041	
11.700	-0.195	-0.040	
11.705	0.149	-0.050	
11.710	-0.027	-0.042	
11.715	-0.229	-0.036	
11.720	0.055	-0.047	
11.725	0.189	-0.040	
11.730	-0.183	-0.018	
11.735	-0.058	-0.014	
11.740	0.308	-0.010	
11.745	-0.075	0.017	
11.750	-0.139	0.027	
11.755	0.244	0.023	
11.760	0.030	0.034	
11.765	-0.200	0.038	
11.770	0.059	0.018	
11.775	0.145	0.008	
11.780	-0.213	0.008	
11.785	-0.110	-0.011	
11.790	0.165	-0.031	
11.795	-0.166	-0.033	
11.800	-0.230	-0.046	
11.805	0.087	-0.069	
11.810	-0.064	-0.073	
11.815	-0.264	-0.076	
11.820	-0.064	-0.093	
11.825	-0.003	-0.103	
11.830	-0.148	-0.099	
11.835	-0.079	-0.096	
11.840	0.041	-0.089	
11.845	-0.124	-0.075	
11.850	-0.156	-0.071	
11.855	0.035	-0.074	
11.860	0.021	-0.065	
11.865	-0.041	-0.047	
11.870	0.267	-0.020	
11.875	0.305	0.034	
11.880	-0.111	0.089	
11.885	-0.053	0.101	
11.890	0.158	0.086	
11.895	-0.195	0.066	
11.900	-0.264	0.021	
11.905	0.041	-0.037	
11.910	-0.066	-0.070	
11.915	-0.261	-0.089	
11.920	-0.017	-0.110	
11.925	0.088	-0.110	
11.930	-0.213	-0.092	
11.935	-0.095	-0.086	
11.940	0.233	-0.075	
11.945	-0.114	-0.044	
11.950	-0.169	-0.028	
11.955	0.218	-0.026	
11.960	0.056	-0.005	
11.965	-0.188	0.012	
11.970	0.105	0.009	
11.975	0.241	0.018	
11.980	-0.157	0.039	
11.985	-0.026	0.037	
11.990	0.344	0.036	
11.995	-0.049	0.057	
12.000	-0.130	0.062	
12.005	0.308	0.053	
12.010	0.177	0.070	
12.015	-0.127	0.090	
12.020	0.245	0.091	
12.025	0.389	0.109	
12.030	-0.079	0.142	
12.035	0.037	0.144	
12.040	0.405	0.137	
12.045	-0.008	0.147	
12.050	-0.099	0.138	
12.055	0.340	0.114	
12.060	0.134	0.115	
12.065	-0.163	0.114	
12.070	0.142	0.091	
12.075	0.244	0.079	
12.080	-0.174	0.080	
12.085	-0.066	0.058	
12.090	0.309	0.036	
12.095	-0.110	0.040	
12.100	-0.188	0.029	
12.105	0.215	0.006	
12.110	0.047	0.007	
12.115	-0.210	0.011	
12.120	0.091	-0.002	
12.125	0.245	0.002	
12.130	-0.137	0.024	
12.135	-0.018	0.028	
12.140	0.352	0.033	
12.145	-0.064	0.058	
12.150	-0.134	0.064	
12.155	0.315	0.054	
12.160	0.105	0.067	
12.165	-0.177	0.077	
12.170	0.142	0.063	
12.175	0.290	0.063	
12.180	-0.163	0.077	
12.185	-0.069	0.064	
12.190	0.270	0.045	
12.195	-0.130	0.043	
12.200	-0.227	0.024	
12.205	0.125	-0.011	
12.210	-0.061	-0.028	
12.215	-0.287	-0.044	
12.220	-0.038	-0.075	
12.225	0.068	-0.090	
12.230	-0.256	-0.088	
12.235	-0.151	-0.098	
12.240	0.172	-0.103	
12.245	-0.157	-0.085	
12.250	-0.241	-0.078	
12.255	0.084	-0.085	
12.260	-0.050	-0.079	
12.265	-0.258	-0.074	
12.270	0.099	-0.080	
12.275	0.402	-0.052	
12.280	-0.023	0.012	
12.285	0.157	0.065	
12.290	0.492	0.115	
12.295	-0.064	0.168	
12.300	-0.203	0.171	
12.305	0.113	0.124	
12.310	-0.035	0.078	
12.315	-0.268	0.030	
12.320	-0.021	-0.026	
12.325	0.149	-0.057	
12.330	-0.215	-0.058	
12.335	-0.119	-0.067	
12.340	0.236	-0.069	
12.345	-0.117	-0.046	
12.350	-0.203	-0.036	
12.355	0.195	-0.039	
12.360	0.049	-0.023	
12.365	-0.224	-0.007	
12.370	0.056	-0.014	
12.375	0.239	-0.009	
12.380	-0.168	0.012	
12.385	-0.056	0.013	
12.390	0.331	0.014	
12.395	-0.066	0.036	
12.400	-0.142	0.043	
12.405	0.326	0.038	
12.410	0.172	0.059	
12.415	-0.154	0.083	
12.420	0.189	0.082	
12.425	0.375	0.094	
12.430	-0.095	0.121	
12.435	0.024	0.122	
12.440	0.454	0.119	
12.445	0.017	0.139	
12.450	-0.110	0.141	
12.455	0.357	0.123	
12.460	0.169	0.127	
12.465	-0.175	0.129	
12.470	0.126	0.104	
12.475	0.306	0.090	
12.480	-0.148	0.094	
12.485	-0.063	0.076	
12.490	0.329	0.056	
12.495	-0.066	0.060	
12.500	-0.178	0.052	
12.505	0.197	0.028	
12.510	0.049	0.023	
12.515	-0.217	0.020	
12.520	0.072	0.000	
12.525	0.248	-0.001	
12.530	-0.177	0.016	
12.535	-0.081	0.013	
12.540	0.309	0.008	
12.545	-0.076	0.025	
12.550	-0.175	0.028	
12.555	0.253	0.016	
12.560	0.119	0.028	
12.565	-0.195	0.043	
12.570	0.134	0.035	
12.575	0.325	0.044	
12.580	-0.128	0.070	
12.585	-0.031	0.072	
12.590	0.355	0.067	
12.595	-0.066	0.081	
12.600	-0.178	0.075	
12.605	0.213	0.048	
12.610	0.052	0.040	
12.615	-0.241	0.032	
12.620	0.026	0.004	
12.625	0.157	-0.012	
12.630	-0.217	-0.012	
12.635	-0.130	-0.029	
12.640	0.213	-0.044	
12.645	-0.122	-0.035	
12.650	-0.224	-0.036	
12.655	0.136	-0.050	
12.660	0.029	-0.044	
12.665	-0.238	-0.035	
12.670	-0.008	-0.045	
12.675	0.146	-0.047	
12.680	-0.218	-0.036	
12.685	-0.102	-0.042	
12.690	0.422	-0.037	
12.695	0.168	0.014	
12.700	0.081	0.075	
12.705	0.591	0.134	
12.710	0.332	0.212	
12.715	-0.163	0.261	
12.720	0.033	0.239	
12.725	0.158	0.187	
12.730	-0.229	0.133	
12.735	-0.153	0.060	
12.740	0.198	-0.002	
12.745	-0.136	-0.027	
12.750	-0.235	-0.049	
12.755	0.110	-0.073	
12.760	0.017	-0.072	
12.765	-0.239	-0.062	
12.770	0.008	-0.067	
12.775	0.218	-0.057	
12.780	-0.162	-0.029	
12.785	-0.089	-0.019	
12.790	0.303	-0.012	
12.795	-0.050	0.015	
12.800	-0.163	0.028	
12.805	0.235	0.022	
12.810	0.102	0.034	
12.815	-0.200	0.045	
12.820	0.114	0.033	
12.825	0.355	0.039	
12.830	-0.104	0.068	
12.835	-0.011	0.076	
12.840	0.451	0.081	
12.845	0.052	0.112	
12.850	-0.095	0.128	
12.855	0.364	0.122	
12.860	0.224	0.137	
12.865	-0.143	0.149	
12.870	0.171	0.133	
12.875	0.372	0.127	
12.880	-0.111	0.137	
12.885	-0.034	0.123	
12.890	0.355	0.101	
12.895	-0.031	0.101	
12.900	-0.175	0.088	
12.905	0.189	0.057	
12.910	0.067	0.043	
12.915	-0.236	0.033	
12.920	0.020	0.004	
12.925	0.219	-0.010	
12.930	-0.183	-0.003	
12.935	-0.116	-0.010	
12.940	0.253	-0.020	
12.945	-0.089	-0.007	
12.950	-0.220	-0.006	
12.955	0.171	-0.021	
12.960	0.082	-0.015	
12.965	-0.220	-0.004	
12.970	0.052	-0.012	
12.975	0.294	-0.005	
12.980	-0.139	0.022	
12.985	-0.067	0.029	
12.990	0.384	0.032	
12.995	-0.017	0.059	
13.000	-0.162	0.071	
13.005	0.253	0.059	
13.010	0.149	0.065	
13.015	-0.195	0.073	
13.020	0.037	0.053	
13.025	0.256	0.040	
13.030	-0.165	0.044	
13.035	-0.128	0.029	
13.040	0.215	0.006	
13.045	-0.104	0.003	
13.050	-0.233	-0.009	
13.055	0.126	-0.034	
13.060	0.040	-0.037	
13.065	-0.253	-0.034	
13.070	-0.006	-0.048	
13.075	0.224	-0.048	
13.080	-0.168	-0.027	
13.085	-0.140	-0.023	
13.090	0.192	-0.028	
13.095	-0.107	-0.020	
13.100	-0.209	-0.022	
13.105	0.271	-0.031	
13.110	0.319	0.000	
13.115	-0.024	0.056	
13.120	0.376	0.103	
13.125	0.527	0.165	
13.130	-0.090	0.227	
13.135	-0.116	0.226	
13.140	0.184	0.178	
13.145	-0.142	0.126	
13.150	-0.265	0.061	
13.155	0.078	-0.010	
13.160	0.027	-0.047	
13.165	-0.246	-0.062	
13.170	-0.008	-0.079	
13.175	0.215	-0.075	
13.180	-0.168	-0.048	
13.185	-0.119	-0.037	
13.190	0.255	-0.031	
13.195	-0.067	-0.008	
13.200	-0.201	0.001	
13.205	0.206	-0.007	
13.210	0.139	0.007	
13.215	-0.203	0.025	
13.220	0.070	0.020	
13.225	0.344	0.027	
13.230	-0.124	0.055	
13.235	-0.075	0.059	
13.240	0.349	0.054	
13.245	-0.014	0.070	
13.250	-0.160	0.072	
13.255	0.285	0.057	
13.260	0.236	0.070	
13.265	-0.145	0.091	
13.270	0.145	0.089	
13.275	0.383	0.096	
13.280	-0.090	0.119	
13.285	-0.041	0.116	
13.290	0.402	0.104	
13.295	0.026	0.115	
13.300	-0.134	0.114	
13.305	0.293	0.095	
13.310	0.215	0.099	
13.315	-0.180	0.107	
13.320	0.046	0.087	
13.325	0.276	0.070	
13.330	-0.163	0.068	
13.335	-0.133	0.047	
13.340	0.255	0.019	
13.345	-0.072	0.016	
13.350	-0.223	0.007	
13.355	0.136	-0.017	
13.360	0.072	-0.020	
13.365	-0.223	-0.015	
13.370	0.020	-0.026	
13.375	0.294	-0.022	
13.380	-0.120	0.007	
13.385	-0.093	0.018	
13.390	0.338	0.021	
13.395	-0.021	0.045	
13.400	-0.188	0.054	
13.405	0.233	0.040	
13.410	0.180	0.047	
13.415	-0.182	0.061	
13.420	0.056	0.051	
13.425	0.279	0.046	
13.430	-0.157	0.056	
13.435	-0.133	0.043	
13.440	0.242	0.020	
13.445	-0.072	0.018	
13.450	-0.246	0.007	
13.455	0.084	-0.022	
13.460	0.038	-0.034	
13.465	-0.261	-0.038	
13.470	-0.053	-0.058	
13.475	0.190	-0.065	
13.480	-0.201	-0.051	
13.485	-0.174	-0.052	
13.490	0.197	-0.060	
13.495	-0.090	-0.046	
13.500	-0.255	-0.042	
13.505	0.061	-0.057	
13.510	0.024	-0.059	
13.515	-0.258	-0.056	
13.520	0.012	-0.066	
13.525	0.358	-0.053	
13.530	-0.040	-0.005	
13.535	0.046	0.034	
13.540	0.453	0.071	
13.545	-0.014	0.119	
13.550	-0.217	0.130	
13.555	0.079	0.095	
13.560	-0.002	0.057	
13.565	-0.291	0.018	
13.570	-0.070	-0.035	
13.575	0.187	-0.065	
13.580	-0.188	-0.063	
13.585	-0.140	-0.065	
13.590	0.259	-0.064	
13.595	-0.060	-0.037	
13.600	-0.223	-0.021	
13.605	0.151	-0.025	
13.610	0.110	-0.014	
13.615	-0.258	-0.001	
13.620	-0.046	-0.015	
13.625	0.241	-0.024	
13.630	-0.163	-0.012	
13.635	-0.119	-0.013	
13.640	0.319	-0.015	
13.645	-0.011	0.010	
13.650	-0.186	0.026	
13.655	0.206	0.021	
13.660	0.194	0.034	
13.665	-0.171	0.053	
13.670	0.088	0.050	
13.675	0.378	0.057	
13.680	-0.095	0.085	
13.685	-0.079	0.088	
13.690	0.357	0.078	
13.695	0.021	0.089	
13.700	-0.148	0.089	
13.705	0.270	0.073	
13.710	0.219	0.080	
13.715	-0.166	0.093	
13.720	0.070	0.081	
13.725	0.367	0.075	
13.730	-0.114	0.091	
13.735	-0.108	0.083	
13.740	0.320	0.063	
13.745	-0.018	0.066	
13.750	-0.204	0.058	
13.755	0.174	0.032	
13.760	0.155	0.027	
13.765	-0.227	0.032	
13.770	0.001	0.014	
13.775	0.294	0.006	
13.780	-0.130	0.022	
13.785	-0.101	0.023	
13.790	0.319	0.019	
13.795	-0.003	0.038	
13.800	-0.188	0.046	
13.805	0.186	0.032	
13.810	0.181	0.037	
13.815	-0.177	0.049	
13.820	0.075	0.042	
13.825	0.372	0.046	
13.830	-0.114	0.072	
13.835	-0.093	0.074	
13.840	0.319	0.062	
13.845	-0.012	0.069	
13.850	-0.209	0.064	
13.855	0.111	0.035	
13.860	0.091	0.019	
13.865	-0.250	0.010	
13.870	-0.060	-0.018	
13.875	0.210	-0.036	
13.880	-0.185	-0.030	
13.885	-0.178	-0.037	
13.890	0.200	-0.049	
13.895	-0.079	-0.040	
13.900	-0.246	-0.037	
13.905	0.082	-0.052	
13.910	0.055	-0.050	
13.915	-0.259	-0.044	
13.920	-0.067	-0.057	
13.925	0.221	-0.061	
13.930	-0.137	-0.040	
13.935	-0.050	-0.028	
13.940	0.581	-0.001	
13.945	0.293	0.078	
13.950	-0.061	0.153	
13.955	0.290	0.183	
13.960	0.148	0.194	
13.965	-0.247	0.180	
13.970	-0.073	0.120	
13.975	0.165	0.058	
13.980	-0.200	0.019	
13.985	-0.178	-0.022	
13.990	0.177	-0.056	
13.995	-0.104	-0.059	
14.000	-0.264	-0.063	
14.005	0.082	-0.079	
14.010	0.097	-0.072	
14.015	-0.221	-0.053	
14.020	-0.015	-0.050	
14.025	0.255	-0.040	
14.030	-0.151	-0.011	
14.035	-0.139	-0.004	
14.040	0.305	-0.005	
14.045	-0.017	0.016	
14.050	-0.200	0.027	
14.055	0.200	0.017	
14.060	0.215	0.028	
14.065	-0.178	0.049	
14.070	0.064	0.047	
14.075	0.390	0.053	
14.080	-0.067	0.082	
14.085	-0.064	0.090	
14.090	0.405	0.087	
14.095	0.094	0.108	
14.100	-0.130	0.120	
14.105	0.297	0.110	
14.110	0.271	0.119	
14.115	-0.157	0.132	
14.120	0.064	0.116	
14.125	0.369	0.102	
14.130	-0.108	0.108	
14.135	-0.122	0.093	
14.140	0.264	0.064	
14.145	-0.046	0.055	
14.150	-0.232	0.037	
14.155	0.108	0.003	
14.160	0.087	-0.011	
14.165	-0.252	-0.014	
14.170	-0.069	-0.036	
14.175	0.212	-0.048	
14.180	-0.163	-0.036	
14.185	-0.174	-0.037	
14.190	0.213	-0.044	
14.195	-0.056	-0.031	
14.200	-0.224	-0.024	
14.205	0.149	-0.033	
14.210	0.155	-0.020	
14.215	-0.201	0.001	
14.220	0.017	0.001	
14.225	0.329	0.008	
14.230	-0.119	0.036	
14.235	-0.120	0.042	
14.240	0.287	0.033	
14.245	-0.021	0.043	
14.250	-0.220	0.041	
14.255	0.099	0.016	
14.260	0.105	0.004	
14.265	-0.238	0.001	
14.270	-0.066	-0.021	
14.275	0.189	-0.036	
14.280	-0.203	-0.032	
14.285	-0.200	-0.043	
14.290	0.152	-0.061	
14.295	-0.108	-0.059	
14.300	-0.271	-0.063	
14.305	0.027	-0.082	
14.310	0.041	-0.084	
14.315	-0.258	-0.076	
14.320	-0.070	-0.084	
14.325	0.210	-0.081	
14.330	-0.182	-0.056	
14.335	-0.201	-0.050	
14.340	0.145	-0.058	
14.345	-0.072	-0.051	
14.350	-0.203	-0.047	
14.355	0.344	-0.043	
14.360	0.501	0.013	
14.365	0.008	0.100	
14.370	0.253	0.160	
14.375	0.477	0.206	
14.380	-0.133	0.240	
14.385	-0.186	0.214	
14.390	0.149	0.145	
14.395	-0.102	0.085	
14.400	-0.281	0.024	
14.405	0.029	-0.040	
14.410	0.073	-0.070	
14.415	-0.244	-0.076	
14.420	-0.058	-0.086	
14.425	0.256	-0.080	
14.430	-0.151	-0.049	
14.435	-0.160	-0.033	
14.440	0.262	-0.030	
14.445	-0.015	-0.006	
14.450	-0.212	0.007	
14.455	0.180	0.001	
14.460	0.204	0.014	
14.465	-0.192	0.036	
14.470	0.012	0.032	
14.475	0.369	0.034	
14.480	-0.082	0.059	
14.485	-0.111	0.065	
14.490	0.340	0.057	
14.495	0.061	0.072	
14.500	-0.142	0.081	
14.505	0.271	0.072	
14.510	0.314	0.088	
14.515	-0.128	0.115	
14.520	0.120	0.115	
14.525	0.462	0.121	
14.530	-0.035	0.147	
14.535	-0.063	0.149	
14.540	0.378	0.132	
14.545	0.073	0.135	
14.550	-0.174	0.127	
14.555	0.186	0.096	
14.560	0.212	0.082	
14.565	-0.192	0.079	
14.570	-0.026	0.054	
14.575	0.296	0.034	
14.580	-0.136	0.038	
14.585	-0.156	0.027	
14.590	0.242	0.007	
14.595	-0.027	0.010	
14.600	-0.233	0.007	
14.605	0.090	-0.014	
14.610	0.130	-0.018	
14.615	-0.221	-0.011	
14.620	-0.046	-0.022	
14.625	0.268	-0.026	
14.630	-0.136	-0.006	
14.635	-0.142	-0.002	
14.640	0.315	-0.005	
14.645	0.038	0.019	
14.650	-0.183	0.037	
14.655	0.200	0.033	
14.660	0.264	0.047	
14.665	-0.156	0.072	
14.670	0.024	0.070	
14.675	0.351	0.067	
14.680	-0.116	0.081	
14.685	-0.159	0.072	
14.690	0.216	0.044	
14.695	-0.053	0.032	
14.700	-0.264	0.013	
14.705	0.032	-0.024	
14.710	0.070	-0.044	
14.715	-0.252	-0.049	
14.720	-0.096	-0.067	
14.725	0.152	-0.077	
14.730	-0.203	-0.067	
14.735	-0.223	-0.072	
14.740	0.148	-0.084	
14.745	-0.078	-0.075	
14.750	-0.277	-0.070	
14.755	0.008	-0.083	
14.760	0.064	-0.083	
14.765	-0.249	-0.074	
14.770	-0.031	-0.076	
14.775	0.430	-0.058	
14.780	0.056	0.002	
14.785	0.094	0.061	
14.790	0.558	0.116	
14.795	0.131	0.183	
14.800	-0.206	0.211	
14.805	0.065	0.176	
14.810	0.082	0.126	
14.815	-0.267	0.077	
14.820	-0.099	0.013	
14.825	0.183	-0.034	
14.830	-0.175	-0.046	
14.835	-0.188	-0.060	
14.840	0.197	-0.072	
14.845	-0.052	-0.058	
14.850	-0.255	-0.048	
14.855	0.056	-0.057	
14.860	0.136	-0.051	
14.865	-0.220	-0.034	
14.870	-0.041	-0.035	
14.875	0.315	-0.029	
14.880	-0.098	0.003	
14.885	-0.122	0.017	
14.890	0.326	0.021	
14.895	0.046	0.045	
14.900	-0.186	0.059	
14.905	0.168	0.048	
14.910	0.245	0.052	
14.915	-0.183	0.066	
14.920	0.001	0.055	
14.925	0.378	0.049	
14.930	-0.066	0.069	
14.935	-0.089	0.073	
14.940	0.387	0.068	
14.945	0.110	0.090	
14.950	-0.154	0.105	
14.955	0.221	0.094	
14.960	0.300	0.098	
14.965	-0.145	0.114	
14.970	0.029	0.102	
14.975	0.383	0.091	
14.980	-0.084	0.102	
14.985	-0.134	0.092	
14.990	0.294	0.067	
14.995	0.026	0.065	
15.000	-0.212	0.058	
15.005	0.120	0.031	
15.010	0.206	0.023	
15.015	-0.200	0.030	
15.020	-0.050	0.017	
15.025	0.291	0.007	
15.030	-0.119	0.019	
15.035	-0.182	0.016	
15.040	0.247	0.001	
15.045	0.001	0.008	
15.050	-0.236	0.010	
15.055	0.107	-0.007	
15.060	0.218	-0.006	
15.065	-0.182	0.013	
15.070	-0.017	0.012	
15.075	0.361	0.016	
15.080	-0.072	0.045	
15.085	-0.122	0.055	
15.090	0.329	0.050	
15.095	0.047	0.066	
15.100	-0.210	0.071	
15.105	0.110	0.048	
15.110	0.216	0.039	
15.115	-0.195	0.043	
15.120	-0.064	0.026	
15.125	0.248	0.009	
15.130	-0.146	0.013	
15.135	-0.195	0.001	
15.140	0.195	-0.021	
15.145	-0.035	-0.020	
15.150	-0.249	-0.022	
15.155	0.078	-0.040	
15.160	0.171	-0.038	
15.165	-0.218	-0.020	
15.170	-0.079	-0.024	
15.175	0.241	-0.028	
15.180	-0.148	-0.013	
15.185	-0.185	-0.014	
15.190	0.267	-0.024	
15.195	0.113	-0.003	
15.200	-0.117	0.025	
15.205	0.422	0.048	
15.210	0.503	0.107	
15.215	-0.102	0.178	
15.220	-0.011	0.193	
15.225	0.282	0.172	
15.230	-0.157	0.148	
15.235	-0.229	0.097	
15.240	0.163	0.033	
15.245	-0.018	-0.001	
15.250	-0.238	-0.022	
15.255	0.078	-0.048	
15.260	0.187	-0.047	
15.265	-0.232	-0.028	
15.270	-0.072	-0.029	
15.275	0.283	-0.029	
15.280	-0.143	-0.007	
15.285	-0.198	-0.004	
15.290	0.218	-0.017	
15.295	-0.002	-0.009	
15.300	-0.238	-0.005	
15.305	0.104	-0.019	
15.310	0.197	-0.015	
15.315	-0.206	0.003	
15.320	-0.061	-0.001	
15.325	0.335	-0.003	
15.330	-0.090	0.021	
15.335	-0.156	0.029	
15.340	0.299	0.023	
15.345	0.088	0.040	
15.350	-0.172	0.055	
15.355	0.215	0.050	
15.360	0.317	0.065	
15.365	-0.143	0.093	
15.370	0.018	0.092	
15.375	0.422	0.089	
15.380	-0.046	0.109	
15.385	-0.136	0.107	
15.390	0.287	0.085	
15.395	0.052	0.081	
15.400	-0.207	0.073	
15.405	0.145	0.045	
15.410	0.279	0.040	
15.415	-0.169	0.054	
15.420	-0.026	0.048	
15.425	0.329	0.041	
15.430	-0.113	0.053	
15.435	-0.186	0.046	
15.440	0.229	0.022	
15.445	0.015	0.020	
15.450	-0.238	0.016	
15.455	0.099	-0.006	
15.460	0.233	-0.006	
15.465	-0.171	0.013	
15.470	-0.041	0.013	
15.475	0.332	0.014	
15.480	-0.096	0.037	
15.485	-0.163	0.040	
15.490	0.317	0.029	
15.495	0.120	0.046	
15.500	-0.178	0.063	
15.505	0.192	0.058	
15.510	0.331	0.069	
15.515	-0.142	0.095	
15.520	-0.006	0.092	
15.525	0.383	0.084	
15.530	-0.072	0.096	
15.535	-0.174	0.088	
15.540	0.224	0.058	
15.545	0.021	0.047	
15.550	-0.227	0.034	
15.555	0.073	0.005	
15.560	0.218	-0.004	
15.565	-0.194	0.007	
15.570	-0.084	-0.001	
15.575	0.308	-0.007	
15.580	-0.096	0.012	
15.585	-0.159	0.016	
15.590	0.287	0.010	
15.595	0.049	0.026	
15.600	-0.247	0.036	
15.605	0.056	0.016	
15.610	0.247	0.008	
15.615	-0.145	0.022	
15.620	0.058	0.025	
15.625	0.594	0.048	
15.630	0.117	0.114	
15.635	-0.084	0.159	
15.640	0.294	0.163	
15.645	-0.003	0.158	
15.650	-0.287	0.127	
15.655	-0.009	0.061	
15.660	0.154	0.010	
15.665	-0.226	-0.013	
15.670	-0.108	-0.041	
15.675	0.271	-0.055	
15.680	-0.099	-0.036	
15.685	-0.178	-0.025	
15.690	0.264	-0.024	
15.695	0.093	0.001	
15.700	-0.194	0.025	
15.705	0.140	0.025	
15.710	0.305	0.039	
15.715	-0.137	0.067	
15.720	-0.006	0.069	
15.725	0.396	0.069	
15.730	-0.046	0.090	
15.735	-0.139	0.092	
15.740	0.335	0.076	
15.745	0.143	0.086	
15.750	-0.162	0.096	
15.755	0.204	0.084	
15.760	0.375	0.091	
15.765	-0.104	0.118	
15.770	0.044	0.118	
15.775	0.489	0.119	
15.780	0.044	0.146	
15.785	-0.084	0.156	
15.790	0.425	0.145	
15.795	0.242	0.160	
15.800	-0.136	0.173	
15.805	0.233	0.157	
15.810	0.387	0.154	
15.815	-0.108	0.165	
15.820	-0.008	0.148	
15.825	0.386	0.124	
15.830	-0.072	0.121	
15.835	-0.163	0.101	
15.840	0.267	0.067	
15.845	0.059	0.057	
15.850	-0.232	0.049	
15.855	0.055	0.020	
15.860	0.206	0.006	
15.865	-0.197	0.010	
15.870	-0.085	-0.002	
15.875	0.303	-0.011	
15.880	-0.078	0.007	
15.885	-0.168	0.014	
15.890	0.248	0.007	
15.895	0.110	0.023	
15.900	-0.188	0.039	
15.905	0.122	0.033	
15.910	0.279	0.040	
15.915	-0.142	0.060	
15.920	-0.021	0.058	
15.925	0.416	0.057	
15.930	-0.020	0.082	
15.935	-0.127	0.091	
15.940	0.322	0.081	
15.945	0.110	0.090	
15.950	-0.207	0.093	
15.955	0.090	0.068	
15.960	0.258	0.053	
15.965	-0.182	0.056	
15.970	-0.087	0.038	
15.975	0.300	0.020	
15.980	-0.101	0.026	
15.985	-0.200	0.020	
15.990	0.189	-0.001	
15.995	0.026	-0.002	
16.000	-0.264	-0.003	
16.005	0.003	-0.026	
16.010	0.215	-0.035	
16.015	-0.204	-0.022	
16.020	-0.128	-0.026	
16.025	0.265	-0.033	
16.030	-0.090	-0.015	
16.035	-0.136	-0.006	
16.040	0.437	0.003	
16.045	0.399	0.059	
16.050	-0.017	0.132	
16.055	0.322	0.176	
16.060	0.366	0.210	
16.065	-0.175	0.229	
16.070	-0.119	0.191	
16.075	0.230	0.129	
16.080	-0.142	0.084	
16.085	-0.241	0.032	
16.090	0.125	-0.022	
16.095	0.015	-0.043	
16.100	-0.258	-0.051	
16.105	0.024	-0.067	
16.110	0.195	-0.063	
16.115	-0.206	-0.040	
16.120	-0.101	-0.036	
16.125	0.309	-0.032	
16.130	-0.070	-0.003	
16.135	-0.175	0.011	
16.140	0.247	0.008	
16.145	0.085	0.024	
16.150	-0.210	0.037	
16.155	0.084	0.025	
16.160	0.279	0.025	
16.165	-0.171	0.042	
16.170	-0.046	0.038	
16.175	0.402	0.035	
16.180	-0.017	0.062	
16.185	-0.128	0.074	
16.190	0.351	0.071	
16.195	0.197	0.091	
16.200	-0.156	0.112	
16.205	0.160	0.103	
16.210	0.331	0.103	
16.215	-0.131	0.115	
16.220	-0.043	0.102	
16.225	0.352	0.082	
16.230	-0.064	0.085	
16.235	-0.188	0.073	
16.240	0.200	0.042	
16.245	0.038	0.031	
16.250	-0.253	0.020	
16.255	-0.009	-0.010	
16.260	0.148	-0.029	
16.265	-0.229	-0.031	
16.270	-0.139	-0.046	
16.275	0.233	-0.058	
16.280	-0.120	-0.044	
16.285	-0.233	-0.040	
16.290	0.143	-0.051	
16.295	0.014	-0.044	
16.300	-0.264	-0.037	
16.305	-0.008	-0.050	
16.310	0.197	-0.052	
16.315	-0.188	-0.034	
16.320	-0.082	-0.031	
16.325	0.317	-0.025	
16.330	-0.064	0.005	
16.335	-0.175	0.019	
16.340	0.242	0.015	
16.345	0.101	0.029	
16.350	-0.212	0.041	
16.355	0.081	0.028	
16.360	0.271	0.027	
16.365	-0.185	0.042	
16.370	-0.136	0.030	
16.375	0.212	0.008	
16.380	-0.131	0.003	
16.385	-0.256	-0.015	
16.390	0.075	-0.047	
16.395	-0.046	-0.061	
16.400	-0.302	-0.071	
16.405	-0.064	-0.096	
16.410	0.120	-0.105	
16.415	-0.258	-0.094	
16.420	-0.182	-0.097	
16.425	0.160	-0.103	
16.430	-0.163	-0.087	
16.435	-0.267	-0.084	
16.440	0.072	-0.095	
16.445	-0.040	-0.091	
16.450	-0.308	-0.087	
16.455	-0.058	-0.101	
16.460	0.213	-0.100	
16.465	-0.111	-0.069	
16.470	0.117	-0.036	
16.475	0.683	0.024	
16.480	0.195	0.127	
16.485	-0.108	0.198	
16.490	0.224	0.206	
16.495	0.038	0.189	
16.500	-0.294	0.147	
16.505	-0.053	0.071	
16.510	0.136	0.008	
16.515	-0.232	-0.025	
16.520	-0.157	-0.059	
16.525	0.184	-0.081	
16.530	-0.140	-0.074	
16.535	-0.246	-0.073	
16.540	0.130	-0.082	
16.545	0.038	-0.069	
16.550	-0.241	-0.051	
16.555	0.026	-0.052	
16.560	0.247	-0.041	
16.565	-0.175	-0.012	
16.570	-0.098	-0.004	
16.575	0.338	-0.002	
16.580	-0.064	0.024	
16.585	-0.188	0.033	
16.590	0.250	0.023	
16.595	0.151	0.035	
16.600	-0.188	0.051	
16.605	0.145	0.046	
16.610	0.386	0.058	
16.615	-0.090	0.091	
16.620	-0.005	0.100	
16.625	0.439	0.101	
16.630	0.014	0.124	
16.635	-0.134	0.128	
16.640	0.315	0.109	
16.645	0.200	0.112	
16.650	-0.168	0.118	
16.655	0.114	0.098	
16.660	0.340	0.089	
16.665	-0.127	0.098	
16.670	-0.064	0.086	
16.675	0.341	0.068	
16.680	-0.052	0.073	
16.685	-0.195	0.064	
16.690	0.221	0.037	
16.695	0.072	0.032	
16.700	-0.247	0.029	
16.705	0.014	0.003	
16.710	0.241	-0.009	
16.715	-0.175	0.001	
16.720	-0.114	-0.004	
16.725	0.294	-0.011	
16.730	-0.056	0.007	
16.735	-0.197	0.014	
16.740	0.181	0.002	
16.745	0.099	0.008	
16.750	-0.206	0.018	
16.755	0.096	0.009	
16.760	0.346	0.019	
16.765	-0.128	0.050	
16.770	-0.072	0.057	
16.775	0.384	0.055	
16.780	-0.005	0.076	
16.785	-0.149	0.083	
16.790	0.288	0.070	
16.795	0.171	0.078	
16.800	-0.201	0.088	
16.805	0.055	0.068	
16.810	0.274	0.054	
16.815	-0.169	0.057	
16.820	-0.105	0.041	
16.825	0.251	0.019	
16.830	-0.107	0.018	
16.835	-0.241	0.005	
16.840	0.122	-0.024	
16.845	0.058	-0.031	
16.850	-0.247	-0.029	
16.855	-0.006	-0.043	
16.860	0.227	-0.044	
16.865	-0.185	-0.024	
16.870	-0.128	-0.022	
16.875	0.267	-0.025	
16.880	-0.089	-0.007	
16.885	-0.220	-0.003	
16.890	0.201	-0.016	
16.895	0.227	-0.000	
16.900	-0.093	0.034	
16.905	0.442	0.066	
16.910	0.707	0.139	
16.915	0.030	0.236	
16.920	-0.020	0.275	
16.925	0.329	0.258	
16.930	-0.082	0.228	
16.935	-0.261	0.166	
16.940	0.079	0.081	
16.945	0.037	0.021	
16.950	-0.247	-0.016	
16.955	-0.023	-0.054	
16.960	0.226	-0.066	
16.965	-0.177	-0.048	
16.970	-0.119	-0.042	
16.975	0.311	-0.036	
16.980	-0.050	-0.005	
16.985	-0.204	0.011	
16.990	0.201	0.005	
16.995	0.161	0.018	
17.000	-0.189	0.036	
17.005	0.062	0.031	
17.010	0.322	0.035	
17.015	-0.130	0.057	
17.020	-0.070	0.057	
17.025	0.378	0.051	
17.030	-0.005	0.071	
17.035	-0.143	0.077	
17.040	0.306	0.067	
17.045	0.247	0.083	
17.050	-0.145	0.105	
17.055	0.171	0.103	
17.060	0.447	0.112	
17.065	-0.063	0.143	
17.070	-0.021	0.145	
17.075	0.451	0.135	
17.080	0.072	0.149	
17.085	-0.134	0.150	
17.090	0.302	0.128	
17.095	0.227	0.125	
17.100	-0.177	0.127	
17.105	0.073	0.103	
17.110	0.329	0.085	
17.115	-0.137	0.088	
17.120	-0.114	0.071	
17.125	0.288	0.046	
17.130	-0.064	0.043	
17.135	-0.229	0.031	
17.140	0.140	0.001	
17.145	0.110	-0.006	
17.150	-0.224	-0.002	
17.155	-0.008	-0.016	
17.160	0.244	-0.019	
17.165	-0.178	-0.004	
17.170	-0.153	-0.008	
17.175	0.235	-0.020	
17.180	-0.072	-0.011	
17.185	-0.218	-0.010	
17.190	0.158	-0.024	
17.195	0.130	-0.016	
17.200	-0.215	0.000	
17.205	0.024	-0.004	
17.210	0.308	0.001	
17.215	-0.134	0.026	
17.220	-0.098	0.031	
17.225	0.322	0.028	
17.230	-0.018	0.045	
17.235	-0.201	0.049	
17.240	0.161	0.030	
17.245	0.105	0.026	
17.250	-0.246	0.025	
17.255	-0.052	-0.001	
17.260	0.171	-0.021	
17.265	-0.215	-0.024	
17.270	-0.195	-0.042	
17.275	0.168	-0.063	
17.280	-0.122	-0.061	
17.285	-0.276	-0.065	
17.290	0.064	-0.083	
17.295	0.050	-0.081	
17.300	-0.256	-0.070	
17.305	-0.055	-0.075	
17.310	0.152	-0.073	
17.315	-0.232	-0.058	
17.320	-0.204	-0.064	
17.325	0.186	-0.076	
17.330	-0.041	-0.062	
17.335	-0.151	-0.046	
17.340	0.413	-0.026	
17.345	0.419	0.039	
17.350	-0.117	0.116	
17.355	0.043	0.143	
17.360	0.227	0.139	
17.365	-0.215	0.124	
17.370	-0.218	0.075	
17.375	0.137	0.013	
17.380	-0.117	-0.023	
17.385	-0.270	-0.053	
17.390	0.062	-0.086	
17.395	0.070	-0.089	
17.400	-0.264	-0.077	
17.405	-0.053	-0.081	
17.410	0.223	-0.075	
17.415	-0.172	-0.048	
17.420	-0.154	-0.038	
17.425	0.258	-0.037	
17.430	-0.046	-0.015	
17.435	-0.233	-0.004	
17.440	0.143	-0.015	
17.445	0.152	-0.009	
17.450	-0.203	0.008	
17.455	0.020	0.003	
17.460	0.343	0.009	
17.465	-0.134	0.037	
17.470	-0.111	0.042	
17.475	0.344	0.036	
17.480	0.017	0.054	
17.485	-0.165	0.063	
17.490	0.261	0.053	
17.495	0.227	0.065	
17.500	-0.165	0.085	
17.505	0.093	0.078	
17.510	0.390	0.080	
17.515	-0.095	0.101	
17.520	-0.084	0.099	
17.525	0.386	0.085	
17.530	0.021	0.095	
17.535	-0.185	0.094	
17.540	0.184	0.068	
17.545	0.143	0.058	
17.550	-0.213	0.054	
17.555	0.000	0.029	
17.560	0.294	0.015	
17.565	-0.142	0.026	
17.570	-0.131	0.021	
17.575	0.276	0.009	
17.580	-0.038	0.019	
17.585	-0.217	0.019	
17.590	0.163	0.002	
17.595	0.155	0.005	
17.600	-0.220	0.018	
17.605	-0.017	0.007	
17.610	0.294	0.002	
17.615	-0.142	0.019	
17.620	-0.139	0.018	
17.625	0.271	0.007	
17.630	-0.040	0.018	
17.635	-0.210	0.018	
17.640	0.166	0.002	
17.645	0.175	0.007	
17.650	-0.195	0.023	
17.655	0.043	0.019	
17.660	0.348	0.024	
17.665	-0.128	0.050	
17.670	-0.137	0.052	
17.675	0.251	0.036	
17.680	-0.075	0.035	
17.685	-0.253	0.021	
17.690	0.102	-0.012	
17.695	0.065	-0.025	
17.700	-0.273	-0.029	
17.705	-0.104	-0.052	
17.710	0.158	-0.069	
17.715	-0.209	-0.064	
17.720	-0.210	-0.072	
17.725	0.155	-0.084	
17.730	-0.096	-0.074	
17.735	-0.265	-0.070	
17.740	0.073	-0.080	
17.745	0.078	-0.073	
17.750	-0.267	-0.057	
17.755	-0.076	-0.064	
17.760	0.277	-0.062	
17.765	-0.085	-0.031	
17.770	0.011	-0.005	
17.775	0.663	0.036	
17.780	0.346	0.128	
17.785	-0.079	0.208	
17.790	0.226	0.228	
17.795	0.133	0.219	
17.800	-0.255	0.185	
17.805	-0.087	0.113	
17.810	0.209	0.046	
17.815	-0.174	0.012	
17.820	-0.182	-0.021	
17.825	0.213	-0.049	
17.830	-0.056	-0.045	
17.835	-0.235	-0.041	
17.840	0.142	-0.049	
17.845	0.183	-0.033	
17.850	-0.207	-0.006	
17.855	0.001	-0.002	
17.860	0.363	0.008	
17.865	-0.120	0.039	
17.870	-0.130	0.047	
17.875	0.328	0.040	
17.880	0.026	0.054	
17.885	-0.188	0.060	
17.890	0.203	0.045	
17.895	0.244	0.051	
17.900	-0.156	0.069	
17.905	0.082	0.066	
17.910	0.422	0.072	
17.915	-0.060	0.102	
17.920	-0.058	0.109	
17.925	0.445	0.105	
17.930	0.122	0.127	
17.935	-0.136	0.141	
17.940	0.288	0.127	
17.945	0.296	0.131	
17.950	-0.163	0.142	
17.955	0.030	0.121	
17.960	0.357	0.100	
17.965	-0.102	0.101	
17.970	-0.122	0.084	
17.975	0.302	0.058	
17.980	-0.014	0.056	
17.985	-0.215	0.048	
17.990	0.139	0.021	
17.995	0.151	0.013	
18.000	-0.227	0.017	
18.005	-0.055	-0.001	
18.010	0.250	-0.013	
18.015	-0.175	-0.005	
18.020	-0.180	-0.013	
18.025	0.204	-0.029	
18.030	-0.069	-0.025	
18.035	-0.250	-0.026	
18.040	0.101	-0.044	
18.045	0.126	-0.041	
18.050	-0.224	-0.026	
18.055	-0.023	-0.030	
18.060	0.326	-0.023	
18.065	-0.110	0.008	
18.070	-0.116	0.021	
18.075	0.332	0.024	
18.080	0.027	0.047	
18.085	-0.186	0.059	
18.090	0.192	0.047	
18.095	0.239	0.053	
18.100	-0.185	0.068	
18.105	-0.009	0.057	
18.110	0.311	0.046	
18.115	-0.125	0.054	
18.120	-0.162	0.044	
18.125	0.216	0.020	
18.130	-0.063	0.014	
18.135	-0.261	0.001	
18.140	0.061	-0.030	
18.145	0.110	-0.041	
18.150	-0.247	-0.037	
18.155	-0.066	-0.049	
18.160	0.247	-0.052	
18.165	-0.160	-0.032	
18.170	-0.186	-0.028	
18.175	0.213	-0.035	
18.180	-0.044	-0.023	
18.185	-0.259	-0.020	
18.190	0.085	-0.036	
18.195	0.197	-0.033	
18.200	-0.120	-0.008	
18.205	0.248	0.015	
18.210	0.738	0.075	
18.215	0.206	0.179	
18.220	0.050	0.253	
18.225	0.445	0.277	
18.230	0.001	0.282	
18.235	-0.253	0.241	
18.240	0.062	0.156	
18.245	0.114	0.085	
18.250	-0.233	0.037	
18.255	-0.053	-0.012	
18.260	0.294	-0.036	
18.265	-0.134	-0.023	
18.270	-0.156	-0.018	
18.275	0.255	-0.021	
18.280	-0.003	-0.003	
18.285	-0.212	0.009	
18.290	0.148	-0.000	
18.295	0.235	0.010	
18.300	-0.165	0.034	
18.305	0.033	0.037	
18.310	0.372	0.044	
18.315	-0.087	0.071	
18.320	-0.111	0.076	
18.325	0.364	0.066	
18.330	0.061	0.081	
18.335	-0.178	0.087	
18.340	0.226	0.071	
18.345	0.294	0.076	
18.350	-0.136	0.096	
18.355	0.081	0.093	
18.360	0.450	0.096	
18.365	-0.027	0.124	
18.370	-0.070	0.130	
18.375	0.419	0.120	
18.380	0.110	0.134	
18.385	-0.169	0.137	
18.390	0.195	0.112	
18.395	0.253	0.101	
18.400	-0.169	0.101	
18.405	0.001	0.079	
18.410	0.325	0.061	
18.415	-0.128	0.065	
18.420	-0.171	0.050	
18.425	0.244	0.023	
18.430	-0.044	0.018	
18.435	-0.259	0.008	
18.440	0.067	-0.022	
18.445	0.130	-0.032	
18.450	-0.236	-0.027	
18.455	-0.072	-0.039	
18.460	0.268	-0.043	
18.465	-0.140	-0.022	
18.470	-0.172	-0.016	
18.475	0.258	-0.021	
18.480	-0.018	-0.004	
18.485	-0.246	0.004	
18.490	0.094	-0.012	
18.495	0.187	-0.012	
18.500	-0.194	0.003	
18.505	-0.008	0.000	
18.510	0.341	0.005	
18.515	-0.105	0.033	
18.520	-0.140	0.040	
18.525	0.309	0.032	
18.530	0.046	0.047	
18.535	-0.194	0.055	
18.540	0.158	0.040	
18.545	0.226	0.042	
18.550	-0.194	0.054	
18.555	-0.043	0.041	
18.560	0.305	0.028	
18.565	-0.124	0.037	
18.570	-0.188	0.028	
18.575	0.174	0.004	
18.580	-0.044	-0.003	
18.585	-0.264	-0.015	
18.590	0.038	-0.042	
18.595	0.120	-0.051	
18.600	-0.242	-0.044	
18.605	-0.093	-0.054	
18.610	0.244	-0.057	
18.615	-0.151	-0.037	
18.620	-0.198	-0.032	
18.625	0.183	-0.041	
18.630	-0.046	-0.032	
18.635	-0.247	-0.029	
18.640	0.149	-0.040	
18.645	0.373	-0.018	
18.650	-0.024	0.036	
18.655	0.303	0.085	
18.660	0.607	0.148	
18.665	-0.026	0.221	
18.670	-0.156	0.234	
18.675	0.200	0.191	
18.680	-0.043	0.144	
18.685	-0.287	0.086	
18.690	0.011	0.014	
18.695	0.122	-0.031	
18.700	-0.230	-0.046	
18.705	-0.075	-0.064	
18.710	0.302	-0.065	
18.715	-0.116	-0.034	
18.720	-0.154	-0.017	
18.725	0.271	-0.012	
18.730	0.026	0.012	
18.735	-0.220	0.026	
18.740	0.143	0.016	
18.745	0.261	0.023	
18.750	-0.165	0.045	
18.755	-0.009	0.044	
18.760	0.390	0.045	
18.765	-0.050	0.071	
18.770	-0.111	0.078	
18.775	0.375	0.072	
18.780	0.149	0.092	
18.785	-0.166	0.109	
18.790	0.204	0.098	
18.795	0.354	0.102	
18.800	-0.131	0.121	
18.805	0.050	0.114	
18.810	0.483	0.111	
18.815	0.004	0.136	
18.820	-0.069	0.143	
18.825	0.433	0.134	
18.830	0.151	0.148	
18.835	-0.168	0.154	
18.840	0.192	0.129	
18.845	0.306	0.117	
18.850	-0.163	0.119	
18.855	-0.029	0.096	
18.860	0.352	0.073	
18.865	-0.090	0.075	
18.870	-0.165	0.063	
18.875	0.268	0.038	
18.880	0.038	0.038	
18.885	-0.246	0.035	
18.890	0.059	0.009	
18.895	0.189	-0.002	
18.900	-0.209	0.003	
18.905	-0.072	-0.009	
18.910	0.300	-0.015	
18.915	-0.101	0.004	
18.920	-0.153	0.010	
18.925	0.268	0.005	
18.930	0.032	0.021	
18.935	-0.218	0.030	
18.940	0.125	0.016	
18.945	0.253	0.019	
18.950	-0.169	0.039	
18.955	-0.043	0.035	
18.960	0.360	0.032	
18.965	-0.063	0.053	
18.970	-0.124	0.058	
18.975	0.344	0.052	
18.980	0.107	0.070	
18.985	-0.200	0.083	
18.990	0.136	0.066	
18.995	0.245	0.061	
19.000	-0.194	0.067	
19.005	-0.082	0.047	
19.010	0.268	0.024	
19.015	-0.130	0.024	
19.020	-0.212	0.010	
19.025	0.168	-0.017	
19.030	-0.014	-0.022	
19.035	-0.247	-0.025	
19.040	0.053	-0.043	
19.045	0.195	-0.041	
19.050	-0.210	-0.022	
19.055	-0.073	-0.022	
19.060	0.309	-0.021	
19.065	-0.124	0.004	
19.070	-0.213	0.008	
19.075	0.229	-0.006	
19.080	0.085	0.003	
19.085	-0.156	0.018	
19.090	0.334	0.027	
19.095	0.599	0.078	
19.100	-0.014	0.159	
19.105	0.058	0.198	
19.110	0.348	0.202	
19.115	-0.137	0.195	
19.120	-0.246	0.147	
19.125	0.090	0.072	
19.130	-0.046	0.016	
19.135	-0.273	-0.026	
19.140	0.027	-0.069	
19.145	0.169	-0.079	
19.150	-0.210	-0.062	
19.155	-0.092	-0.059	
19.160	0.288	-0.051	
19.165	-0.102	-0.020	
19.170	-0.188	-0.006	
19.175	0.245	-0.009	
19.180	0.056	0.008	
19.185	-0.212	0.022	
19.190	0.105	0.012	
19.195	0.267	0.018	
19.200	-0.175	0.038	
19.205	-0.043	0.036	
19.210	0.373	0.033	
19.215	-0.053	0.055	
19.220	-0.140	0.062	
19.225	0.349	0.055	
19.230	0.143	0.073	
19.235	-0.172	0.090	
19.240	0.184	0.081	
19.245	0.348	0.087	
19.250	-0.104	0.109	
19.255	0.027	0.108	
19.260	0.434	0.105	
19.265	-0.026	0.125	
19.270	-0.127	0.123	
19.275	0.326	0.102	
19.280	0.088	0.101	
19.285	-0.209	0.095	
19.290	0.084	0.064	
19.295	0.229	0.045	
19.300	-0.197	0.043	
19.305	-0.089	0.023	
19.310	0.285	0.005	
19.315	-0.116	0.012	
19.320	-0.206	0.006	
19.325	0.200	-0.013	
19.330	0.015	-0.011	
19.335	-0.249	-0.008	
19.340	0.035	-0.026	
19.345	0.207	-0.029	
19.350	-0.194	-0.013	
19.355	-0.084	-0.015	
19.360	0.276	-0.017	
19.365	-0.110	0.001	
19.370	-0.172	0.005	
19.375	0.294	-0.002	
19.380	0.090	0.019	
19.385	-0.207	0.038	
19.390	0.102	0.030	
19.395	0.303	0.034	
19.400	-0.142	0.056	
19.405	-0.031	0.056	
19.410	0.375	0.054	
19.415	-0.055	0.073	
19.420	-0.177	0.073	
19.425	0.197	0.050	
19.430	0.004	0.040	
19.435	-0.264	0.024	
19.440	-0.014	-0.012	
19.445	0.139	-0.035	
19.450	-0.247	-0.039	
19.455	-0.153	-0.057	
19.460	0.168	-0.073	
19.465	-0.153	-0.066	
19.470	-0.241	-0.068	
19.475	0.117	-0.080	
19.480	-0.031	-0.073	
19.485	-0.270	-0.066	
19.490	-0.003	-0.077	
19.495	0.157	-0.073	
19.500	-0.235	-0.055	
19.505	-0.142	-0.056	
19.510	0.233	-0.060	
19.515	-0.078	-0.039	
19.520	-0.101	-0.023	
19.525	0.508	-0.000	
19.530	0.421	0.073	
19.535	-0.049	0.155	
19.540	0.224	0.192	
19.545	0.248	0.205	
19.550	-0.229	0.196	
19.555	-0.156	0.139	
19.560	0.178	0.068	
19.565	-0.140	0.024	
19.570	-0.241	-0.018	
19.575	0.097	-0.060	
19.580	-0.034	-0.073	
19.585	-0.274	-0.077	
19.590	-0.012	-0.092	
19.595	0.168	-0.089	
19.600	-0.203	-0.065	
19.605	-0.070	-0.056	
19.610	0.343	-0.041	
19.615	-0.061	-0.000	
19.620	-0.128	0.024	
19.625	0.418	0.036	
19.630	0.259	0.080	
19.635	-0.122	0.124	
19.640	0.207	0.133	
19.645	0.372	0.144	
19.650	-0.130	0.160	
19.655	-0.027	0.143	
19.660	0.378	0.117	
19.665	-0.040	0.114	
19.670	-0.151	0.099	
19.675	0.270	0.069	
19.680	0.084	0.064	
19.685	-0.210	0.060	
19.690	0.110	0.037	
19.695	0.244	0.030	
19.700	-0.207	0.039	
19.705	-0.133	0.022	
19.710	0.206	-0.002	
19.715	-0.142	-0.008	
19.720	-0.249	-0.024	
19.725	0.065	-0.054	
19.730	-0.052	-0.067	
19.735	-0.299	-0.076	
19.740	-0.075	-0.100	
19.745	0.076	-0.111	
19.750	-0.258	-0.104	
19.755	-0.175	-0.110	
19.760	0.146	-0.114	
19.765	-0.169	-0.097	
19.770	-0.268	-0.092	
19.775	0.079	-0.102	
19.780	-0.029	-0.094	
19.785	-0.288	-0.085	
19.790	-0.032	-0.095	
19.795	0.171	-0.090	
19.800	-0.224	-0.067	
19.805	-0.139	-0.063	
19.810	0.223	-0.062	
19.815	-0.102	-0.041	
19.820	-0.197	-0.031	
19.825	0.242	-0.032	
19.830	0.113	-0.008	
19.835	-0.207	0.017	
19.840	0.076	0.016	
19.845	0.270	0.022	
19.850	-0.160	0.042	
19.855	-0.072	0.039	
19.860	0.325	0.031	
19.865	-0.070	0.045	
19.870	-0.191	0.043	
19.875	0.169	0.021	
19.880	0.029	0.015	
19.885	-0.258	0.007	
19.890	-0.014	-0.021	
19.895	0.157	-0.037	
19.900	-0.220	-0.034	
19.905	-0.151	-0.046	
19.910	0.175	-0.060	
19.915	-0.145	-0.053	
19.920	-0.250	-0.057	
19.925	0.094	-0.073	
19.930	-0.015	-0.072	
19.935	-0.274	-0.067	
19.940	-0.018	-0.080	
19.945	0.171	-0.077	
19.950	-0.227	-0.058	
19.955	-0.146	-0.057	
19.960	0.306	-0.056	
19.965	0.035	-0.022	
19.970	-0.012	0.015	
19.975	0.639	0.061	
19.980	0.491	0.153	
19.985	-0.072	0.242	
19.990	0.168	0.264	
19.995	0.247	0.250	
20.000	-0.206	0.218	
20.005	-0.140	0.148	
20.010	0.265	0.076	
20.015	-0.090	0.040	
20.020	-0.213	0.010	
20.025	0.177	-0.023	
20.030	0.058	-0.026	
20.035	-0.235	-0.020	
20.040	0.029	-0.031	
20.045	0.258	-0.027	
20.050	-0.183	-0.003	
20.055	-0.108	-0.001	
20.060	0.315	-0.004	
20.065	-0.055	0.017	
20.070	-0.168	0.026	
20.075	0.273	0.020	
20.080	0.174	0.039	
20.085	-0.174	0.062	
20.090	0.140	0.060	
20.095	0.355	0.069	
20.100	-0.119	0.095	
20.105	-0.034	0.094	
20.110	0.410	0.086	
20.115	0.009	0.103	
20.120	-0.136	0.106	
20.125	0.332	0.091	
20.130	0.223	0.102	
20.135	-0.162	0.116	
20.140	0.151	0.105	
20.145	0.392	0.104	
20.150	-0.114	0.122	
20.155	-0.050	0.114	
20.160	0.378	0.096	
20.165	-0.024	0.101	
20.170	-0.175	0.092	
20.175	0.200	0.063	
20.180	0.072	0.050	
20.185	-0.235	0.040	
20.190	-0.006	0.009	
20.195	0.219	-0.010	
20.200	-0.195	-0.006	
20.205	-0.131	-0.017	
20.210	0.247	-0.029	
20.215	-0.113	-0.018	
20.220	-0.236	-0.019	
20.225	0.136	-0.037	
20.230	0.029	-0.036	
20.235	-0.265	-0.032	
20.240	-0.003	-0.048	
20.245	0.221	-0.049	
20.250	-0.194	-0.029	
20.255	-0.128	-0.028	
20.260	0.276	-0.030	
20.265	-0.076	-0.009	
20.270	-0.213	-0.002	
20.275	0.210	-0.011	
20.280	0.101	0.000	
20.285	-0.221	0.015	
20.290	0.070	0.007	
20.295	0.346	0.014	
20.300	-0.119	0.044	
20.305	-0.066	0.053	
20.310	0.381	0.054	
20.315	-0.061	0.073	
20.320	-0.212	0.072	
20.325	0.169	0.043	
20.330	0.067	0.030	
20.335	-0.244	0.021	
20.340	-0.011	-0.008	
20.345	0.190	-0.024	
20.350	-0.210	-0.020	
20.355	-0.153	-0.032	
20.360	0.227	-0.045	
20.365	-0.102	-0.034	
20.370	-0.235	-0.032	
20.375	0.140	-0.045	
20.380	0.044	-0.039	
20.385	-0.262	-0.031	
20.390	-0.021	-0.044	
20.395	0.194	-0.047	
20.400	-0.221	-0.034	
20.405	-0.145	-0.039	
20.410	0.343	-0.042	
20.415	0.062	-0.008	
20.420	-0.043	0.030	
20.425	0.564	0.068	
20.430	0.387	0.142	
20.435	-0.159	0.207	
20.440	0.029	0.205	
20.445	0.203	0.171	
20.450	-0.235	0.132	
20.455	-0.180	0.068	
20.460	0.203	0.006	
20.465	-0.110	-0.021	
20.470	-0.236	-0.041	
20.475	0.157	-0.064	
20.480	0.091	-0.055	
20.485	-0.241	-0.036	
20.490	0.012	-0.038	
20.495	0.279	-0.028	
20.500	-0.146	0.001	
20.505	-0.087	0.010	
20.510	0.348	0.014	
20.515	-0.014	0.041	
20.520	-0.175	0.053	
20.525	0.262	0.045	
20.530	0.190	0.057	
20.535	-0.185	0.074	
20.540	0.108	0.065	
20.545	0.380	0.068	
20.550	-0.102	0.092	
20.555	-0.049	0.093	
20.560	0.430	0.087	
20.565	0.047	0.107	
20.570	-0.134	0.115	
20.575	0.326	0.103	
20.580	0.251	0.114	
20.585	-0.151	0.129	
20.590	0.102	0.115	
20.595	0.392	0.108	
20.600	-0.107	0.120	
20.605	-0.060	0.109	
20.610	0.421	0.093	
20.615	0.041	0.106	
20.620	-0.162	0.108	
20.625	0.242	0.088	
20.630	0.190	0.085	
20.635	-0.191	0.088	
20.640	0.065	0.067	
20.645	0.322	0.057	
20.650	-0.130	0.068	
20.655	-0.079	0.060	
20.660	0.354	0.048	
20.665	-0.018	0.061	
20.670	-0.178	0.063	
20.675	0.230	0.046	
20.680	0.155	0.049	
20.685	-0.215	0.056	
20.690	0.026	0.038	
20.695	0.320	0.029	
20.700	-0.140	0.044	
20.705	-0.095	0.040	
20.710	0.363	0.033	
20.715	0.001	0.052	
20.720	-0.169	0.061	
20.725	0.267	0.051	
20.730	0.210	0.063	
20.735	-0.174	0.081	
20.740	0.119	0.074	
20.745	0.405	0.079	
20.750	-0.095	0.105	
20.755	-0.066	0.105	
20.760	0.370	0.093	
20.765	-0.003	0.101	
20.770	-0.188	0.094	
20.775	0.198	0.065	
20.780	0.136	0.055	
20.785	-0.233	0.050	
20.790	-0.014	0.023	
20.795	0.250	0.005	
20.800	-0.189	0.009	
20.805	-0.149	-0.004	
20.810	0.239	-0.021	
20.815	-0.096	-0.015	
20.820	-0.250	-0.018	
20.825	0.116	-0.039	
20.830	0.079	-0.039	
20.835	-0.265	-0.031	
20.840	-0.049	-0.045	
20.845	0.221	-0.050	
20.850	-0.166	-0.033	
20.855	-0.067	-0.026	
20.860	0.495	-0.009	
20.865	0.245	0.055	
20.870	-0.014	0.121	
20.875	0.392	0.159	
20.880	0.180	0.193	
20.885	-0.253	0.196	
20.890	-0.070	0.144	
20.895	0.152	0.080	
20.900	-0.220	0.035	
20.905	-0.177	-0.015	
20.910	0.223	-0.053	
20.915	-0.079	-0.053	
20.920	-0.233	-0.052	
20.925	0.157	-0.059	
20.930	0.111	-0.043	
20.935	-0.227	-0.020	
20.940	0.000	-0.021	
20.945	0.291	-0.015	
20.950	-0.134	0.012	
20.955	-0.096	0.019	
20.960	0.366	0.021	
20.965	0.015	0.048	
20.970	-0.140	0.064	
20.975	0.332	0.064	
20.980	0.329	0.091	
20.985	-0.122	0.128	
20.990	0.177	0.134	
20.995	0.459	0.144	
21.000	-0.089	0.169	
21.005	-0.069	0.160	
21.010	0.405	0.134	
21.015	0.055	0.134	
21.020	-0.146	0.126	
21.025	0.300	0.101	
21.030	0.279	0.105	
21.035	-0.139	0.120	
21.040	0.122	0.111	
21.045	0.408	0.110	
21.050	-0.095	0.128	
21.055	-0.082	0.120	
21.060	0.364	0.098	
21.065	0.001	0.099	
21.070	-0.200	0.089	
21.075	0.180	0.058	
21.080	0.148	0.046	
21.085	-0.215	0.044	
21.090	0.017	0.022	
21.095	0.312	0.014	
21.100	-0.136	0.030	
21.105	-0.119	0.029	
21.110	0.312	0.020	
21.115	-0.012	0.035	
21.120	-0.203	0.040	
21.125	0.168	0.023	
21.130	0.161	0.024	
21.135	-0.201	0.034	
21.140	0.041	0.023	
21.145	0.349	0.024	
21.150	-0.092	0.050	
21.155	-0.056	0.059	
21.160	0.419	0.062	
21.165	0.073	0.092	
21.170	-0.139	0.109	
21.175	0.294	0.101	
21.180	0.311	0.114	
21.185	-0.146	0.135	
21.190	0.090	0.125	
21.195	0.383	0.116	
21.200	-0.122	0.124	
21.205	-0.116	0.107	
21.210	0.311	0.076	
21.215	-0.032	0.069	
21.220	-0.217	0.054	
21.225	0.126	0.021	
21.230	0.105	0.008	
21.235	-0.236	0.004	
21.240	-0.041	-0.017	
21.245	0.236	-0.028	
21.250	-0.175	-0.017	
21.255	-0.171	-0.021	
21.260	0.226	-0.033	
21.265	-0.070	-0.023	
21.270	-0.252	-0.021	
21.275	0.056	-0.041	
21.280	0.053	-0.047	
21.285	-0.249	-0.045	
21.290	0.032	-0.055	
21.295	0.482	-0.036	
21.300	0.090	0.030	
21.305	0.183	0.096	
21.310	0.627	0.161	
21.315	0.117	0.234	
21.320	-0.198	0.258	
21.325	0.093	0.213	
21.330	0.072	0.155	
21.335	-0.264	0.096	
21.340	-0.072	0.025	
21.345	0.213	-0.023	
21.350	-0.182	-0.035	
21.355	-0.171	-0.049	
21.360	0.229	-0.060	
21.365	-0.049	-0.044	
21.370	-0.218	-0.032	
21.375	0.157	-0.035	
21.380	0.177	-0.018	
21.385	-0.201	0.008	
21.390	-0.006	0.009	
21.395	0.323	0.013	
21.400	-0.117	0.036	
21.405	-0.127	0.039	
21.410	0.320	0.031	
21.415	0.009	0.046	
21.420	-0.185	0.051	
21.425	0.197	0.037	
21.430	0.226	0.043	
21.435	-0.162	0.061	
21.440	0.087	0.058	
21.445	0.402	0.065	
21.450	-0.073	0.094	
21.455	-0.075	0.099	
21.460	0.405	0.092	
21.465	0.094	0.110	
21.470	-0.157	0.118	
21.475	0.245	0.102	
21.480	0.253	0.102	
21.485	-0.180	0.110	
21.490	0.017	0.089	
21.495	0.317	0.070	
21.500	-0.133	0.072	
21.505	-0.142	0.055	
21.510	0.258	0.030	
21.515	-0.043	0.027	
21.520	-0.238	0.017	
21.525	0.096	-0.010	
21.530	0.078	-0.020	
21.535	-0.258	-0.022	
21.540	-0.089	-0.043	
21.545	0.172	-0.057	
21.550	-0.198	-0.051	
21.555	-0.192	-0.058	
21.560	0.189	-0.069	
21.565	-0.070	-0.056	
21.570	-0.265	-0.049	
21.575	0.055	-0.062	
21.580	0.085	-0.060	
21.585	-0.250	-0.049	
21.590	-0.056	-0.057	
21.595	0.271	-0.054	
21.600	-0.127	-0.026	
21.605	-0.137	-0.013	
21.610	0.262	-0.011	
21.615	-0.021	0.009	
21.620	-0.212	0.018	
21.625	0.143	0.005	
21.630	0.161	0.008	
21.635	-0.224	0.020	
21.640	-0.067	0.005	
21.645	0.197	-0.010	
21.650	-0.203	-0.010	
21.655	-0.212	-0.028	
21.660	0.172	-0.052	
21.665	-0.093	-0.053	
21.670	-0.293	-0.058	
21.675	0.001	-0.080	
21.680	0.026	-0.089	
21.685	-0.291	-0.088	
21.690	-0.116	-0.102	
21.695	0.130	-0.108	
21.700	-0.226	-0.095	
21.705	-0.232	-0.097	
21.710	0.143	-0.105	
21.715	-0.117	-0.092	
21.720	-0.310	-0.088	
21.725	-0.012	-0.104	
21.730	0.058	-0.105	
21.735	-0.204	-0.091	
21.740	0.128	-0.078	
21.745	0.643	-0.025	
21.750	0.149	0.078	
21.755	0.050	0.160	
21.760	0.422	0.202	
21.765	-0.015	0.226	
21.770	-0.267	0.201	
21.775	0.029	0.128	
21.780	0.033	0.061	
21.785	-0.285	0.007	
21.790	-0.117	-0.050	
21.795	0.152	-0.086	
21.800	-0.201	-0.089	
21.805	-0.204	-0.095	
21.810	0.204	-0.099	
21.815	-0.056	-0.076	
21.820	-0.242	-0.057	
21.825	0.108	-0.058	
21.830	0.154	-0.041	
21.835	-0.217	-0.017	
21.840	-0.023	-0.015	
21.845	0.348	-0.008	
21.850	-0.108	0.023	
21.855	-0.136	0.034	
21.860	0.319	0.030	
21.865	0.032	0.047	
21.870	-0.194	0.056	
21.875	0.203	0.043	
21.880	0.270	0.050	
21.885	-0.157	0.072	
21.890	0.067	0.070	
21.895	0.436	0.076	
21.900	-0.049	0.105	
21.905	-0.090	0.112	
21.910	0.389	0.102	
21.915	0.104	0.115	
21.920	-0.153	0.120	
21.925	0.244	0.103	
21.930	0.285	0.104	
21.935	-0.153	0.116	
21.940	0.018	0.100	
21.945	0.360	0.085	
21.950	-0.108	0.091	
21.955	-0.153	0.077	
21.960	0.259	0.049	
21.965	-0.014	0.042	
21.970	-0.236	0.031	
21.975	0.088	0.001	
21.980	0.123	-0.011	
21.985	-0.247	-0.010	
21.990	-0.082	-0.029	
21.995	0.238	-0.041	
22.000	-0.172	-0.029	
22.005	-0.188	-0.032	
22.010	0.224	-0.042	
22.015	-0.044	-0.029	
22.020	-0.242	-0.022	
22.025	0.090	-0.035	
22.030	0.157	-0.031	
22.035	-0.215	-0.014	
22.040	-0.024	-0.017	
22.045	0.352	-0.011	
22.050	-0.093	0.021	
22.055	-0.124	0.035	
22.060	0.337	0.035	
22.065	0.073	0.057	
22.070	-0.188	0.071	
22.075	0.181	0.060	
22.080	0.206	0.060	
22.085	-0.201	0.068	
22.090	-0.035	0.048	
22.095	0.290	0.030	
22.100	-0.146	0.034	
22.105	-0.197	0.021	
22.110	0.169	-0.007	
22.115	-0.070	-0.016	
22.120	-0.273	-0.029	
22.125	0.030	-0.057	
22.130	0.099	-0.065	
22.135	-0.244	-0.058	
22.140	-0.076	-0.065	
22.145	0.221	-0.065	
22.150	-0.182	-0.044	
22.155	-0.221	-0.043	
22.160	0.154	-0.056	
22.165	-0.082	-0.052	
22.170	-0.285	-0.054	
22.175	0.038	-0.073	
22.180	0.230	-0.068	
22.185	-0.102	-0.035	
22.190	0.280	0.002	
22.195	0.715	0.074	
22.200	0.084	0.178	
22.205	-0.087	0.234	
22.210	0.258	0.225	
22.215	-0.063	0.197	
22.220	-0.302	0.138	
22.225	-0.024	0.052	
22.230	0.093	-0.012	
22.235	-0.246	-0.045	
22.240	-0.096	-0.076	
22.245	0.251	-0.085	
22.250	-0.136	-0.062	
22.255	-0.168	-0.048	
22.260	0.258	-0.042	
22.265	0.004	-0.015	
22.270	-0.230	0.003	
22.275	0.111	-0.005	
22.280	0.213	0.002	
22.285	-0.188	0.021	
22.290	-0.012	0.018	
22.295	0.361	0.021	
22.300	-0.093	0.046	
22.305	-0.142	0.052	
22.310	0.326	0.043	
22.315	0.075	0.057	
22.320	-0.183	0.068	
22.325	0.206	0.056	
22.330	0.315	0.065	
22.335	-0.137	0.090	
22.340	0.058	0.090	
22.345	0.474	0.094	
22.350	-0.011	0.125	
22.355	-0.092	0.134	
22.360	0.378	0.122	
22.365	0.120	0.130	
22.370	-0.172	0.130	
22.375	0.223	0.106	
22.380	0.265	0.100	
22.385	-0.185	0.104	
22.390	-0.040	0.081	
22.395	0.331	0.057	
22.400	-0.110	0.059	
22.405	-0.157	0.047	
22.410	0.320	0.027	
22.415	0.136	0.041	
22.420	-0.163	0.060	
22.425	0.152	0.057	
22.430	0.197	0.060	
22.435	-0.242	0.065	
22.440	-0.096	0.037	
22.445	0.265	0.009	
22.450	-0.131	0.008	
22.455	-0.182	-0.003	
22.460	0.224	-0.020	
22.465	-0.023	-0.013	
22.470	-0.255	-0.011	
22.475	0.062	-0.030	
22.480	0.192	-0.031	
22.485	-0.200	-0.014	
22.490	-0.055	-0.015	
22.495	0.332	-0.012	
22.500	-0.078	0.016	
22.505	-0.130	0.029	
22.510	0.325	0.030	
22.515	0.078	0.052	
22.520	-0.192	0.067	
22.525	0.151	0.054	
22.530	0.235	0.054	
22.535	-0.207	0.063	
22.540	-0.070	0.044	
22.545	0.282	0.024	
22.550	-0.134	0.026	
22.555	-0.198	0.014	
22.560	0.212	-0.010	
22.565	-0.012	-0.009	
22.570	-0.276	-0.012	
22.575	0.012	-0.036	
22.580	0.133	-0.047	
22.585	-0.246	-0.042	
22.590	-0.102	-0.053	
22.595	0.256	-0.058	
22.600	-0.142	-0.037	
22.605	-0.212	-0.031	
22.610	0.175	-0.040	
22.615	0.000	-0.031	
22.620	-0.209	-0.022	
22.625	0.250	-0.022	
22.630	0.517	0.020	
22.635	0.024	0.097	
22.640	0.184	0.152	
22.645	0.469	0.190	
22.650	-0.098	0.222	
22.655	-0.204	0.199	
22.660	0.114	0.133	
22.665	-0.072	0.074	
22.670	-0.281	0.017	
22.675	0.032	-0.042	
22.680	0.151	-0.066	
22.685	-0.223	-0.061	
22.690	-0.072	-0.064	
22.695	0.322	-0.056	
22.700	-0.095	-0.019	
22.705	-0.160	0.001	
22.710	0.294	0.005	
22.715	0.091	0.030	
22.720	-0.198	0.050	
22.725	0.146	0.043	
22.730	0.285	0.049	
22.735	-0.165	0.069	
22.740	-0.024	0.062	
22.745	0.370	0.055	
22.750	-0.072	0.071	
22.755	-0.134	0.070	
22.760	0.348	0.057	
22.765	0.149	0.073	
22.770	-0.162	0.089	
22.775	0.215	0.083	
22.780	0.358	0.093	
22.785	-0.124	0.119	
22.790	0.049	0.116	
22.795	0.460	0.114	
22.800	-0.012	0.136	
22.805	-0.102	0.137	
22.810	0.380	0.120	
22.815	0.142	0.126	
22.820	-0.175	0.128	
22.825	0.180	0.104	
22.830	0.290	0.095	
22.835	-0.183	0.100	
22.840	-0.055	0.077	
22.845	0.337	0.054	
22.850	-0.087	0.057	
22.855	-0.166	0.048	
22.860	0.247	0.027	
22.865	0.044	0.028	
22.870	-0.226	0.029	
22.875	0.084	0.009	
22.880	0.219	0.005	
22.885	-0.197	0.017	
22.890	-0.061	0.009	
22.895	0.322	0.004	
22.900	-0.095	0.023	
22.905	-0.171	0.026	
22.910	0.293	0.016	
22.915	0.094	0.032	
22.920	-0.194	0.047	
22.925	0.154	0.039	
22.930	0.306	0.048	
22.935	-0.153	0.071	
22.940	-0.020	0.069	
22.945	0.407	0.065	
22.950	-0.038	0.086	
22.955	-0.133	0.089	
22.960	0.319	0.075	
22.965	0.076	0.081	
22.970	-0.224	0.081	
22.975	0.075	0.052	
22.980	0.209	0.034	
22.985	-0.218	0.032	
22.990	-0.114	0.009	
22.995	0.236	-0.014	
23.000	-0.140	-0.012	
23.005	-0.217	-0.021	
23.010	0.181	-0.040	
23.015	-0.011	-0.035	
23.020	-0.270	-0.032	
23.025	0.018	-0.049	
23.030	0.166	-0.051	
23.035	-0.226	-0.037	
23.040	-0.120	-0.042	
23.045	0.207	-0.049	
23.050	-0.131	-0.036	
23.055	-0.169	-0.033	
23.060	0.407	-0.028	
23.065	0.355	0.025	
23.070	-0.009	0.098	
23.075	0.387	0.149	
23.080	0.404	0.201	
23.085	-0.166	0.236	
23.090	-0.093	0.209	
23.095	0.253	0.153	
23.100	-0.139	0.110	
23.105	-0.224	0.056	
23.110	0.169	0.001	
23.115	-0.003	-0.022	
23.120	-0.250	-0.033	
23.125	0.062	-0.053	
23.130	0.230	-0.048	
23.135	-0.197	-0.021	
23.140	-0.072	-0.015	
23.145	0.332	-0.010	
23.150	-0.081	0.018	
23.155	-0.182	0.028	
23.160	0.277	0.020	
23.165	0.120	0.035	
23.170	-0.198	0.051	
23.175	0.154	0.044	
23.180	0.302	0.051	
23.185	-0.162	0.073	
23.190	-0.035	0.067	
23.195	0.407	0.060	
23.200	-0.037	0.080	
23.205	-0.124	0.085	
23.210	0.364	0.075	
23.215	0.200	0.094	
23.220	-0.136	0.114	
23.225	0.241	0.111	
23.230	0.422	0.125	
23.235	-0.089	0.154	
23.240	0.062	0.154	
23.245	0.506	0.151	
23.250	-0.002	0.171	
23.255	-0.134	0.166	
23.260	0.293	0.134	
23.265	0.088	0.119	
23.270	-0.218	0.101	
23.275	0.041	0.059	
23.280	0.192	0.030	
23.285	-0.215	0.020	
23.290	-0.116	-0.005	
23.295	0.262	-0.025	
23.300	-0.114	-0.016	
23.305	-0.209	-0.017	
23.310	0.178	-0.031	
23.315	0.011	-0.025	
23.320	-0.256	-0.020	
23.325	0.023	-0.036	
23.330	0.200	-0.037	
23.335	-0.215	-0.022	
23.340	-0.107	-0.026	
23.345	0.303	-0.029	
23.350	-0.084	-0.006	
23.355	-0.201	0.004	
23.360	0.238	-0.004	
23.365	0.090	0.010	
23.370	-0.203	0.025	
23.375	0.119	0.018	
23.380	0.293	0.027	
23.385	-0.169	0.051	
23.390	-0.053	0.049	
23.395	0.361	0.043	
23.400	-0.070	0.059	
23.405	-0.188	0.058	
23.410	0.210	0.036	
23.415	0.014	0.030	
23.420	-0.264	0.020	
23.425	-0.023	-0.013	
23.430	0.168	-0.034	
23.435	-0.229	-0.034	
23.440	-0.153	-0.048	
23.445	0.194	-0.062	
23.450	-0.142	-0.053	
23.455	-0.246	-0.054	
23.460	0.131	-0.068	
23.465	-0.008	-0.062	
23.470	-0.270	-0.055	
23.475	-0.015	-0.067	
23.480	0.142	-0.068	
23.485	-0.250	-0.055	
23.490	-0.134	-0.061	
23.495	0.328	-0.062	
23.500	0.008	-0.026	
23.505	-0.006	0.012	
23.510	0.625	0.057	
23.515	0.422	0.145	
23.520	-0.117	0.224	
23.525	0.148	0.237	
23.530	0.219	0.218	
23.535	-0.241	0.185	
23.540	-0.146	0.115	
23.545	0.238	0.046	
23.550	-0.024	0.018	
23.555	-0.018	0.008	
23.560	0.474	0.021	
23.565	0.161	0.074	
23.570	-0.223	0.113	
23.575	0.130	0.104	
23.580	1.139	0.135	
23.585	1.803	0.319	
23.590	3.107	0.713	
23.595	3.105	1.288	
23.600	3.116	1.907	
23.605	1.797	2.373	
23.610	1.040	2.522	
23.615	-0.250	2.297	
23.620	-0.790	1.751	
23.625	-0.657	1.045	
23.630	-0.563	0.381	
23.635	-0.826	-0.135	
23.640	-0.736	-0.501	
23.645	-0.465	-0.716	
23.650	-0.634	-0.795	
23.655	-0.695	-0.800	
23.660	-0.387	-0.766	
23.665	-0.416	-0.695	
23.670	-0.616	-0.616	
23.675	-0.361	-0.557	
23.680	-0.224	-0.497	
23.685	-0.474	-0.435	
23.690	-0.244	-0.389	
23.695	-0.021	-0.341	
23.700	-0.306	-0.281	
23.705	-0.438	-0.250	
23.710	-0.154	-0.250	
23.715	-0.213	-0.248	
23.720	-0.432	-0.248	
23.725	-0.201	-0.261	
23.730	-0.066	-0.261	
23.735	-0.352	-0.244	
23.740	-0.264	-0.239	
23.745	0.003	-0.232	
23.750	-0.236	-0.209	
23.755	-0.323	-0.196	
23.760	0.003	-0.194	
23.765	-0.064	-0.174	
23.770	-0.316	-0.153	
23.775	-0.038	-0.148	
23.780	0.166	-0.129	
23.785	-0.220	-0.092	
23.790	-0.143	-0.076	
23.795	0.262	-0.066	
23.800	-0.093	-0.035	
23.805	-0.215	-0.020	
23.810	0.209	-0.023	
23.815	0.105	-0.007	
23.820	-0.220	0.012	
23.825	0.067	0.007	
23.830	0.312	0.013	
23.835	-0.153	0.039	
23.840	-0.085	0.041	
23.845	0.308	0.033	
23.850	-0.084	0.044	
23.855	-0.203	0.038	
23.860	0.258	0.018	
23.865	0.096	0.023	
23.870	-0.244	0.031	
23.875	0.015	0.012	
23.880	0.259	0.002	
23.885	-0.182	0.013	
23.890	-0.128	0.006	
23.895	0.270	-0.007	
23.900	-0.087	0.003	
23.905	-0.210	0.002	
23.910	0.227	-0.012	
23.915	0.114	0.000	
23.920	-0.250	0.016	
23.925	-0.005	0.002	
23.930	0.230	-0.006	
23.935	-0.154	0.005	
23.940	0.038	0.007	
23.945	0.680	0.035	
23.950	0.335	0.122	
23.955	0.055	0.207	
23.960	0.491	0.254	
23.965	0.209	0.288	
23.970	-0.215	0.283	
23.975	-0.012	0.218	
23.980	0.190	0.143	
23.985	-0.200	0.088	
23.990	-0.116	0.030	
23.995	0.317	-0.010	
24.000	-0.056	-0.006	
24.005	-0.183	-0.002	
24.010	0.247	-0.008	
24.015	0.125	0.011	
24.020	-0.215	0.031	
24.025	0.067	0.024	
24.030	0.312	0.027	
24.035	-0.148	0.049	
24.040	-0.069	0.048	
24.045	0.375	0.043	
24.050	-0.023	0.063	
24.055	-0.151	0.069	
24.060	0.305	0.059	
24.065	0.201	0.073	
24.070	-0.185	0.091	
24.075	0.136	0.081	
24.080	0.364	0.082	
24.085	-0.114	0.102	
24.090	-0.026	0.098	
24.095	0.476	0.092	
24.100	0.065	0.118	
24.105	-0.102	0.132	
24.110	0.364	0.125	
24.115	0.261	0.140	
24.120	-0.159	0.154	
24.125	0.145	0.137	
24.130	0.390	0.128	
24.135	-0.116	0.137	
24.140	-0.053	0.121	
24.145	0.387	0.098	
24.150	-0.023	0.101	
24.155	-0.183	0.091	
24.160	0.238	0.063	
24.165	0.128	0.056	
24.170	-0.218	0.056	
24.175	0.038	0.032	
24.180	0.288	0.022	
24.185	-0.177	0.033	
24.190	-0.120	0.024	
24.195	0.300	0.009	
24.200	-0.070	0.019	
24.205	-0.209	0.019	
24.210	0.187	0.001	
24.215	0.108	0.005	
24.220	-0.226	0.014	
24.225	0.033	0.002	
24.230	0.303	0.002	
24.235	-0.142	0.025	
24.240	-0.087	0.028	
24.245	0.341	0.026	
24.250	-0.050	0.045	
24.255	-0.195	0.048	
24.260	0.232	0.031	
24.265	0.163	0.037	
24.270	-0.204	0.049	
24.275	0.062	0.038	
24.280	0.291	0.035	
24.285	-0.171	0.049	
24.290	-0.120	0.039	
24.295	0.296	0.021	
24.300	-0.076	0.027	
24.305	-0.235	0.021	
24.310	0.094	-0.007	
24.315	0.032	-0.020	
24.320	-0.273	-0.028	
24.325	-0.044	-0.053	
24.330	0.204	-0.062	
24.335	-0.200	-0.048	
24.340	-0.145	-0.048	
24.345	0.271	-0.049	
24.350	-0.070	-0.025	
24.355	-0.224	-0.013	
24.360	0.142	-0.022	
24.365	0.059	-0.017	
24.370	-0.235	-0.010	
24.375	0.094	-0.020	
24.380	0.474	-0.001	
24.385	0.035	0.058	
24.390	0.168	0.109	
24.395	0.561	0.157	
24.400	0.037	0.213	
24.405	-0.198	0.221	
24.410	0.152	0.175	
24.415	0.014	0.125	
24.420	-0.303	0.072	
24.425	-0.055	0.003	
24.430	0.219	-0.041	
24.435	-0.178	-0.045	
24.440	-0.130	-0.051	
24.445	0.334	-0.050	
24.450	-0.035	-0.017	
24.455	-0.195	0.006	
24.460	0.232	0.007	
24.465	0.161	0.026	
24.470	-0.220	0.046	
24.475	0.041	0.036	
24.480	0.320	0.033	
24.485	-0.142	0.051	
24.490	-0.093	0.047	
24.495	0.372	0.039	
24.500	-0.006	0.057	
24.505	-0.185	0.064	
24.510	0.244	0.049	
24.515	0.187	0.056	
24.520	-0.191	0.068	
24.525	0.108	0.058	
24.530	0.408	0.062	
24.535	-0.101	0.091	
24.540	-0.044	0.096	
24.545	0.472	0.093	
24.550	0.061	0.119	
24.555	-0.151	0.131	
24.560	0.268	0.113	
24.565	0.216	0.112	
24.570	-0.186	0.114	
24.575	0.068	0.090	
24.580	0.369	0.076	
24.585	-0.116	0.087	
24.590	-0.089	0.079	
24.595	0.357	0.063	
24.600	-0.038	0.071	
24.605	-0.218	0.064	
24.610	0.171	0.035	
24.615	0.130	0.026	
24.620	-0.242	0.025	
24.625	-0.012	0.003	
24.630	0.277	-0.008	
24.635	-0.169	0.006	
24.640	-0.145	0.002	
24.645	0.271	-0.009	
24.650	-0.075	0.002	
24.655	-0.241	0.002	
24.660	0.140	-0.018	
24.665	0.126	-0.017	
24.670	-0.218	-0.005	
24.675	0.043	-0.011	
24.680	0.346	-0.002	
24.685	-0.134	0.031	
24.690	-0.093	0.040	
24.695	0.401	0.041	
24.700	0.024	0.068	
24.705	-0.185	0.081	
24.710	0.226	0.067	
24.715	0.171	0.068	
24.720	-0.221	0.071	
24.725	-0.003	0.048	
24.730	0.274	0.029	
24.735	-0.182	0.032	
24.740	-0.160	0.015	
24.745	0.256	-0.007	
24.750	-0.082	-0.004	
24.755	-0.252	-0.009	
24.760	0.111	-0.032	
24.765	0.081	-0.035	
24.770	-0.250	-0.029	
24.775	-0.041	-0.042	
24.780	0.230	-0.045	
24.785	-0.201	-0.028	
24.790	-0.177	-0.031	
24.795	0.210	-0.043	
24.800	-0.093	-0.033	
24.805	-0.247	-0.033	
24.810	0.160	-0.046	
24.815	0.256	-0.029	
24.820	-0.095	0.011	
24.825	0.293	0.046	
24.830	0.546	0.102	
24.835	-0.087	0.171	
24.840	-0.137	0.184	
24.845	0.262	0.152	
24.850	-0.087	0.122	
24.855	-0.276	0.076	
24.860	0.078	0.014	
24.865	0.073	-0.022	
24.870	-0.249	-0.036	
24.875	-0.020	-0.057	
24.880	0.302	-0.056	
24.885	-0.153	-0.026	
24.890	-0.128	-0.012	
24.895	0.309	-0.007	
24.900	-0.040	0.017	
24.905	-0.203	0.027	
24.910	0.210	0.016	
24.915	0.195	0.027	
24.920	-0.207	0.045	
24.925	0.018	0.037	
24.930	0.355	0.034	
24.935	-0.107	0.055	
24.940	-0.066	0.059	
24.945	0.413	0.058	
24.950	0.050	0.084	
24.955	-0.169	0.097	
24.960	0.277	0.085	
24.965	0.276	0.094	
24.970	-0.160	0.112	
24.975	0.107	0.103	
24.980	0.448	0.103	
24.985	-0.070	0.127	
24.990	-0.067	0.126	
24.995	0.418	0.112	
25.000	0.053	0.123	
25.005	-0.175	0.121	
25.010	0.235	0.095	
25.015	0.215	0.088	
25.020	-0.201	0.090	
25.025	0.011	0.066	
25.030	0.309	0.048	
25.035	-0.154	0.052	
25.040	-0.143	0.038	
25.045	0.290	0.017	
25.050	-0.040	0.022	
25.055	-0.249	0.018	
25.060	0.099	-0.007	
25.065	0.090	-0.016	
25.070	-0.246	-0.016	
25.075	-0.032	-0.033	
25.080	0.261	-0.038	
25.085	-0.169	-0.018	
25.090	-0.156	-0.016	
25.095	0.285	-0.021	
25.100	-0.021	-0.001	
25.105	-0.212	0.010	
25.110	0.201	0.002	
25.115	0.206	0.016	
25.120	-0.197	0.040	
25.125	0.008	0.035	
25.130	0.351	0.035	
25.135	-0.122	0.055	
25.140	-0.117	0.054	
25.145	0.329	0.043	
25.150	-0.017	0.053	
25.155	-0.223	0.052	
25.160	0.145	0.027	
25.165	0.139	0.019	
25.170	-0.249	0.020	
25.175	-0.060	-0.003	
25.180	0.223	-0.020	
25.185	-0.191	-0.016	
25.190	-0.191	-0.027	
25.195	0.258	-0.042	
25.200	-0.053	-0.029	
25.205	-0.252	-0.022	
25.210	0.087	-0.036	
25.215	0.120	-0.035	
25.220	-0.244	-0.023	
25.225	-0.049	-0.033	
25.230	0.235	-0.036	
25.235	-0.180	-0.020	
25.240	-0.156	-0.022	
25.245	0.375	-0.024	
25.250	0.142	0.014	
25.255	-0.040	0.058	
25.260	0.518	0.096	
25.265	0.448	0.164	
25.270	-0.145	0.225	
25.275	-0.006	0.221	
25.280	0.244	0.182	
25.285	-0.191	0.143	
25.290	-0.186	0.082	
25.295	0.258	0.023	
25.300	-0.034	0.003	
25.305	-0.242	-0.009	
25.310	0.119	-0.032	
25.315	0.155	-0.031	
25.320	-0.235	-0.015	
25.325	-0.029	-0.021	
25.330	0.312	-0.019	
25.335	-0.130	0.007	
25.340	-0.140	0.015	
25.345	0.331	0.012	
25.350	0.041	0.034	
25.355	-0.186	0.049	
25.360	0.235	0.043	
25.365	0.255	0.057	
25.370	-0.175	0.080	
25.375	0.065	0.075	
25.380	0.431	0.076	
25.385	-0.064	0.103	
25.390	-0.052	0.108	
25.395	0.448	0.104	
25.400	0.117	0.127	
25.405	-0.140	0.140	
25.410	0.322	0.128	
25.415	0.346	0.137	
25.420	-0.128	0.158	
25.425	0.128	0.149	
25.430	0.486	0.145	
25.435	-0.032	0.166	
25.440	-0.063	0.162	
25.445	0.412	0.142	
25.450	0.053	0.143	
25.455	-0.200	0.132	
25.460	0.157	0.094	
25.465	0.160	0.070	
25.470	-0.239	0.057	
25.475	-0.040	0.023	
25.480	0.277	0.000	
25.485	-0.159	0.005	
25.490	-0.174	-0.003	
25.495	0.261	-0.018	
25.500	-0.034	-0.007	
25.505	-0.249	-0.003	
25.510	0.082	-0.022	
25.515	0.120	-0.025	
25.520	-0.252	-0.019	
25.525	-0.069	-0.033	
25.530	0.256	-0.040	
25.535	-0.151	-0.023	
25.540	-0.151	-0.019	
25.545	0.322	-0.020	
25.550	0.021	0.007	
25.555	-0.204	0.026	
25.560	0.203	0.023	
25.565	0.258	0.038	
25.570	-0.177	0.063	
25.575	0.029	0.061	
25.580	0.372	0.060	
25.585	-0.110	0.079	
25.590	-0.146	0.074	
25.595	0.290	0.053	
25.600	-0.038	0.051	
25.605	-0.258	0.038	
25.610	0.079	0.003	
25.615	0.110	-0.014	
25.620	-0.261	-0.018	
25.625	-0.087	-0.040	
25.630	0.229	-0.053	
25.635	-0.177	-0.040	
25.640	-0.198	-0.042	
25.645	0.216	-0.051	
25.650	-0.046	-0.038	
25.655	-0.261	-0.030	
25.660	0.038	-0.046	
25.665	0.059	-0.050	
25.670	-0.288	-0.050	
25.675	-0.117	-0.069	
25.680	0.229	-0.080	
25.685	-0.119	-0.060	
25.690	-0.050	-0.042	
25.695	0.642	-0.006	
25.700	0.369	0.087	
25.705	-0.067	0.177	
25.710	0.276	0.212	
25.715	0.195	0.222	
25.720	-0.255	0.204	
25.725	-0.108	0.139	
25.730	0.189	0.068	
25.735	-0.194	0.024	
25.740	-0.209	-0.021	
25.745	0.177	-0.059	
25.750	-0.055	-0.063	
25.755	-0.250	-0.062	
25.760	0.096	-0.071	
25.765	0.177	-0.057	
25.770	-0.201	-0.028	
25.775	0.004	-0.019	
25.780	0.389	-0.002	
25.785	-0.092	0.039	
25.790	-0.137	0.055	
25.795	0.315	0.050	
25.800	0.044	0.063	
25.805	-0.201	0.068	
25.810	0.171	0.049	
25.815	0.268	0.049	
25.820	-0.162	0.065	
25.825	0.064	0.062	
25.830	0.465	0.068	
25.835	-0.037	0.103	
25.840	-0.066	0.116	
25.845	0.463	0.115	
25.850	0.160	0.140	
25.855	-0.130	0.157	
25.860	0.296	0.145	
25.865	0.381	0.152	
25.870	-0.120	0.170	
25.875	0.101	0.159	
25.880	0.462	0.149	
25.885	-0.072	0.161	
25.890	-0.130	0.145	
25.895	0.303	0.110	
25.900	0.021	0.095	
25.905	-0.224	0.076	
25.910	0.116	0.038	
25.915	0.194	0.022	
25.920	-0.226	0.022	
25.925	-0.055	0.004	
25.930	0.300	-0.007	
25.935	-0.133	0.008	
25.940	-0.178	0.007	
25.945	0.242	-0.006	
25.950	-0.017	0.002	
25.955	-0.247	0.004	
25.960	0.090	-0.015	
25.965	0.194	-0.016	
25.970	-0.207	-0.001	
25.975	-0.035	-0.005	
25.980	0.352	-0.003	
25.985	-0.093	0.025	
25.990	-0.117	0.037	
25.995	0.334	0.036	
26.000	0.047	0.056	
26.005	-0.204	0.066	
26.010	0.171	0.050	
26.015	0.258	0.051	
26.020	-0.183	0.065	
26.025	-0.024	0.054	
26.030	0.308	0.042	
26.035	-0.137	0.049	
26.040	-0.186	0.037	
26.045	0.224	0.011	
26.050	-0.037	0.006	
26.055	-0.273	-0.003	
26.060	0.030	-0.032	
26.065	0.114	-0.045	
26.070	-0.265	-0.044	
26.075	-0.120	-0.059	
26.080	0.194	-0.071	
26.085	-0.180	-0.059	
26.090	-0.236	-0.061	
26.095	0.163	-0.074	
26.100	-0.044	-0.064	
26.105	-0.267	-0.056	
26.110	0.008	-0.068	
26.115	0.084	-0.070	
26.120	-0.255	-0.061	
26.125	-0.063	-0.068	
26.130	0.472	-0.055	
26.135	0.108	0.008	
26.140	0.097	0.073	
26.145	0.627	0.135	
26.150	0.235	0.213	
26.155	-0.189	0.254	
26.160	0.072	0.224	
26.165	0.108	0.171	
26.170	-0.274	0.114	
26.175	-0.120	0.039	
26.180	0.216	-0.019	
26.185	-0.172	-0.037	
26.190	-0.218	-0.056	
26.195	0.206	-0.073	
26.200	-0.024	-0.060	
26.205	-0.253	-0.047	
26.210	0.070	-0.053	
26.215	0.177	-0.044	
26.220	-0.213	-0.021	
26.225	-0.056	-0.020	
26.230	0.325	-0.016	
26.235	-0.122	0.010	
26.240	-0.180	0.017	
26.245	0.268	0.007	
26.250	0.035	0.019	
26.255	-0.226	0.027	
26.260	0.134	0.012	
26.265	0.268	0.017	
26.270	-0.172	0.040	
26.275	0.009	0.040	
26.280	0.430	0.046	
26.285	-0.032	0.079	
26.290	-0.095	0.093	
26.295	0.396	0.091	
26.300	0.142	0.112	
26.305	-0.174	0.125	
26.310	0.198	0.108	
26.315	0.306	0.104	
26.320	-0.174	0.112	
26.325	-0.031	0.092	
26.330	0.360	0.071	
26.335	-0.102	0.075	
26.340	-0.166	0.062	
26.345	0.273	0.037	
26.350	0.014	0.036	
26.355	-0.253	0.031	
26.360	0.062	0.003	
26.365	0.158	-0.010	
26.370	-0.247	-0.008	
26.375	-0.102	-0.026	
26.380	0.255	-0.039	
26.385	-0.139	-0.026	
26.390	-0.217	-0.026	
26.395	0.201	-0.038	
26.400	-0.012	-0.029	
26.405	-0.261	-0.023	
26.410	0.046	-0.038	
26.415	0.177	-0.039	
26.420	-0.215	-0.023	
26.425	-0.081	-0.027	
26.430	0.326	-0.026	
26.435	-0.099	0.001	
26.440	-0.165	0.013	
26.445	0.268	0.008	
26.450	0.047	0.024	
26.455	-0.224	0.034	
26.460	0.102	0.019	
26.465	0.256	0.018	
26.470	-0.200	0.034	
26.475	-0.060	0.026	
26.480	0.300	0.017	
26.485	-0.143	0.027	
26.490	-0.229	0.017	
26.495	0.177	-0.010	
26.500	-0.034	-0.018	
26.505	-0.293	-0.027	
26.510	0.000	-0.055	
26.515	0.125	-0.066	
26.520	-0.252	-0.060	
26.525	-0.114	-0.068	
26.530	0.241	-0.071	
26.535	-0.156	-0.049	
26.540	-0.224	-0.043	
26.545	0.178	-0.052	
26.550	-0.037	-0.042	
26.555	-0.299	-0.039	
26.560	-0.005	-0.059	
26.565	0.155	-0.065	
26.570	-0.194	-0.051	
26.575	0.038	-0.044	
26.580	0.594	-0.010	
26.585	0.142	0.072	
26.590	-0.044	0.137	
26.595	0.381	0.164	
26.600	0.033	0.182	
26.605	-0.281	0.164	
26.610	-0.032	0.100	
26.615	0.088	0.038	
26.620	-0.253	-0.005	
26.625	-0.110	-0.049	
26.630	0.277	-0.071	
26.635	-0.139	-0.054	
26.640	-0.209	-0.046	
26.645	0.224	-0.049	
26.650	0.001	-0.030	
26.655	-0.264	-0.017	
26.660	0.033	-0.030	
26.665	0.180	-0.032	
26.670	-0.232	-0.019	
26.675	-0.096	-0.027	
26.680	0.308	-0.031	
26.685	-0.107	-0.009	
26.690	-0.169	0.001	
26.695	0.271	-0.003	
26.700	0.068	0.016	
26.705	-0.213	0.032	
26.710	0.140	0.023	
26.715	0.306	0.032	
26.720	-0.162	0.058	
26.725	-0.005	0.059	
26.730	0.441	0.061	
26.735	-0.037	0.089	
26.740	-0.128	0.098	
26.745	0.364	0.087	
26.750	0.152	0.101	
26.755	-0.174	0.112	
26.760	0.200	0.097	
26.765	0.369	0.099	
26.770	-0.154	0.118	
26.775	-0.047	0.106	
26.780	0.352	0.085	
26.785	-0.090	0.086	
26.790	-0.183	0.069	
26.795	0.271	0.040	
26.800	0.067	0.038	
26.805	-0.229	0.038	
26.810	0.087	0.017	
26.815	0.239	0.012	
26.820	-0.207	0.024	
26.825	-0.085	0.013	
26.830	0.309	0.002	
26.835	-0.099	0.017	
26.840	-0.192	0.017	
26.845	0.221	0.002	
26.850	0.026	0.007	
26.855	-0.246	0.009	
26.860	0.081	-0.009	
26.865	0.277	-0.007	
26.870	-0.182	0.016	
26.875	-0.047	0.018	
26.880	0.335	0.019	
26.885	-0.090	0.040	
26.890	-0.174	0.042	
26.895	0.309	0.030	
26.900	0.102	0.043	
26.905	-0.213	0.056	
26.910	0.108	0.042	
26.915	0.268	0.040	
26.920	-0.200	0.052	
26.925	-0.087	0.038	
26.930	0.306	0.021	
26.935	-0.119	0.028	
26.940	-0.221	0.019	
26.945	0.186	-0.006	
26.950	0.001	-0.011	
26.955	-0.271	-0.014	
26.960	0.012	-0.038	
26.965	0.181	-0.046	
26.970	-0.232	-0.035	
26.975	-0.120	-0.041	
26.980	0.280	-0.046	
26.985	-0.117	-0.025	
26.990	-0.224	-0.018	
26.995	0.174	-0.029	
27.000	-0.018	-0.025	
27.005	-0.270	-0.024	
27.010	0.081	-0.041	
27.015	0.372	-0.030	
27.020	-0.052	0.017	
27.025	0.189	0.058	
27.030	0.605	0.110	
27.035	0.024	0.181	
27.040	-0.171	0.205	
27.045	0.210	0.174	
27.050	-0.011	0.138	
27.055	-0.285	0.090	
27.060	0.011	0.024	
27.065	0.177	-0.017	
27.070	-0.227	-0.028	
27.075	-0.104	-0.046	
27.080	0.320	-0.051	
27.085	-0.111	-0.025	
27.090	-0.206	-0.012	
27.095	0.256	-0.016	
27.100	0.096	0.003	
27.105	-0.213	0.023	
27.110	0.113	0.019	
27.115	0.311	0.028	
27.120	-0.154	0.054	
27.125	-0.023	0.056	
27.130	0.430	0.057	
27.135	-0.046	0.084	
27.140	-0.160	0.090	
27.145	0.323	0.074	
27.150	0.168	0.083	
27.155	-0.183	0.094	
27.160	0.186	0.081	
27.165	0.383	0.086	
27.170	-0.114	0.112	
27.175	0.014	0.111	
27.180	0.483	0.109	
27.185	0.014	0.133	
27.190	-0.117	0.139	
27.195	0.395	0.124	
27.200	0.221	0.135	
27.205	-0.165	0.147	
27.210	0.155	0.127	
27.215	0.346	0.117	
27.220	-0.154	0.122	
27.225	-0.049	0.102	
27.230	0.376	0.079	
27.235	-0.058	0.083	
27.240	-0.171	0.074	
27.245	0.250	0.048	
27.250	0.052	0.045	
27.255	-0.249	0.040	
27.260	0.046	0.011	
27.265	0.242	-0.001	
27.270	-0.203	0.008	
27.275	-0.107	-0.001	
27.280	0.288	-0.011	
27.285	-0.107	0.002	
27.290	-0.218	0.002	
27.295	0.210	-0.014	
27.300	0.062	-0.007	
27.305	-0.236	0.002	
27.310	0.105	-0.008	
27.315	0.329	0.003	
27.320	-0.143	0.036	
27.325	-0.038	0.046	
27.330	0.412	0.051	
27.335	-0.035	0.079	
27.340	-0.163	0.086	
27.345	0.282	0.070	
27.350	0.108	0.073	
27.355	-0.232	0.073	
27.360	0.049	0.045	
27.365	0.242	0.029	
27.370	-0.209	0.030	
27.375	-0.127	0.011	
27.380	0.239	-0.010	
27.385	-0.142	-0.009	
27.390	-0.264	-0.021	
27.395	0.107	-0.049	
27.400	-0.032	-0.058	
27.405	-0.299	-0.063	
27.410	-0.032	-0.085	
27.415	0.172	-0.088	
27.420	-0.229	-0.070	
27.425	-0.130	-0.067	
27.430	0.271	-0.063	
27.435	-0.127	-0.037	
27.440	-0.236	-0.027	
27.445	0.178	-0.036	
27.450	0.137	-0.023	
27.455	-0.124	0.004	
27.460	0.401	0.029	
27.465	0.633	0.097	
27.470	-0.032	0.188	
27.475	-0.017	0.223	
27.480	0.337	0.212	
27.485	-0.111	0.192	
27.490	-0.242	0.141	
27.495	0.136	0.069	
27.500	0.003	0.022	
27.505	-0.288	-0.012	
27.510	-0.035	-0.054	
27.515	0.174	-0.074	
27.520	-0.226	-0.066	
27.525	-0.137	-0.069	
27.530	0.265	-0.068	
27.535	-0.101	-0.042	
27.540	-0.209	-0.028	
27.545	0.226	-0.030	
27.550	0.087	-0.010	
27.555	-0.229	0.010	
27.560	0.067	0.004	
27.565	0.296	0.009	
27.570	-0.157	0.033	
27.575	-0.072	0.035	
27.580	0.373	0.033	
27.585	-0.040	0.055	
27.590	-0.163	0.062	
27.595	0.317	0.051	
27.600	0.174	0.067	
27.605	-0.171	0.085	
27.610	0.175	0.078	
27.615	0.402	0.087	
27.620	-0.113	0.116	
27.625	-0.012	0.116	
27.630	0.479	0.110	
27.635	0.038	0.133	
27.640	-0.133	0.139	
27.645	0.322	0.120	
27.650	0.165	0.120	
27.655	-0.209	0.118	
27.660	0.075	0.087	
27.665	0.288	0.067	
27.670	-0.177	0.066	
27.675	-0.119	0.045	
27.680	0.290	0.020	
27.685	-0.089	0.022	
27.690	-0.212	0.014	
27.695	0.174	-0.008	
27.700	0.056	-0.009	
27.705	-0.256	-0.006	
27.710	0.015	-0.024	
27.715	0.236	-0.028	
27.720	-0.200	-0.011	
27.725	-0.125	-0.014	
27.730	0.293	-0.021	
27.735	-0.075	-0.002	
27.740	-0.212	0.004	
27.745	0.227	-0.006	
27.750	0.114	0.007	
27.755	-0.213	0.023	
27.760	0.062	0.015	
27.765	0.317	0.019	
27.770	-0.140	0.043	
27.775	-0.049	0.046	
27.780	0.412	0.047	
27.785	-0.014	0.074	
27.790	-0.157	0.084	
27.795	0.303	0.072	
27.800	0.140	0.081	
27.805	-0.229	0.086	
27.810	0.029	0.060	
27.815	0.274	0.040	
27.820	-0.186	0.041	
27.825	-0.133	0.024	
27.830	0.251	0.001	
27.835	-0.111	0.002	
27.840	-0.246	-0.008	
27.845	0.133	-0.033	
27.850	0.035	-0.037	
27.855	-0.268	-0.035	
27.860	-0.021	-0.052	
27.865	0.230	-0.054	
27.870	-0.204	-0.035	
27.875	-0.151	-0.034	
27.880	0.241	-0.039	
27.885	-0.110	-0.025	
27.890	-0.226	-0.022	
27.895	0.293	-0.029	
27.900	0.335	0.005	
27.905	-0.012	0.064	
27.910	0.479	0.118	
27.915	0.654	0.197	
27.920	-0.055	0.279	
27.925	-0.072	0.290	
27.930	0.290	0.246	
27.935	-0.104	0.197	
27.940	-0.241	0.130	
27.945	0.149	0.053	
27.950	0.038	0.009	
27.955	-0.274	-0.016	
27.960	-0.035	-0.051	
27.965	0.207	-0.065	
27.970	-0.206	-0.052	
27.975	-0.133	-0.051	
27.980	0.320	-0.049	
27.985	-0.047	-0.017	
27.990	-0.204	0.003	
27.995	0.247	0.002	
28.000	0.160	0.022	
28.005	-0.210	0.044	
28.010	0.062	0.038	
28.015	0.352	0.040	
28.020	-0.125	0.063	
28.025	-0.072	0.064	
28.030	0.392	0.059	
28.035	-0.003	0.078	
28.040	-0.157	0.083	
28.045	0.312	0.070	
28.050	0.255	0.084	
28.055	-0.159	0.106	
28.060	0.136	0.101	
28.065	0.418	0.104	
28.070	-0.098	0.127	
28.075	-0.044	0.123	
28.080	0.430	0.109	
28.085	0.012	0.121	
28.090	-0.165	0.117	
28.095	0.285	0.093	
28.100	0.195	0.091	
28.105	-0.207	0.095	
28.110	0.038	0.071	
28.115	0.300	0.054	
28.120	-0.168	0.057	
28.125	-0.128	0.041	
28.130	0.293	0.019	
28.135	-0.079	0.022	
28.140	-0.235	0.015	
28.145	0.152	-0.009	
28.150	0.088	-0.013	
28.155	-0.252	-0.008	
28.160	0.001	-0.024	
28.165	0.251	-0.027	
28.170	-0.186	-0.009	
28.175	-0.124	-0.009	
28.180	0.332	-0.013	
28.185	-0.044	0.011	
28.190	-0.212	0.022	
28.195	0.218	0.012	
28.200	0.166	0.023	
28.205	-0.198	0.040	
28.210	0.073	0.034	
28.215	0.370	0.039	
28.220	-0.124	0.067	
28.225	-0.067	0.070	
28.230	0.416	0.066	
28.235	0.001	0.088	
28.240	-0.188	0.093	
28.245	0.215	0.071	
28.250	0.116	0.063	
28.255	-0.249	0.057	
28.260	-0.011	0.025	
28.265	0.267	0.005	
28.270	-0.203	0.009	
28.275	-0.171	-0.005	
28.280	0.236	-0.025	
28.285	-0.098	-0.021	
28.290	-0.265	-0.026	
28.295	0.108	-0.047	
28.300	0.052	-0.049	
28.305	-0.271	-0.043	
28.310	-0.038	-0.057	
28.315	0.244	-0.058	
28.320	-0.201	-0.036	
28.325	-0.172	-0.034	
28.330	0.258	-0.040	
28.335	-0.058	-0.023	
28.340	-0.180	-0.012	
28.345	0.390	-0.005	
28.350	0.469	0.048	
28.355	-0.038	0.125	
28.360	0.223	0.168	
28.365	0.376	0.195	
28.370	-0.174	0.209	
28.375	-0.180	0.170	
28.380	0.206	0.105	
28.385	-0.110	0.059	
28.390	-0.277	0.012	
28.395	0.081	-0.040	
28.400	0.065	-0.061	
28.405	-0.262	-0.062	
28.410	-0.032	-0.074	
28.415	0.268	-0.069	
28.420	-0.178	-0.038	
28.425	-0.146	-0.027	
28.430	0.302	-0.025	
28.435	-0.043	0.000	
28.440	-0.201	0.013	
28.445	0.216	0.007	
28.450	0.168	0.021	
28.455	-0.212	0.039	
28.460	0.050	0.032	
28.465	0.373	0.034	
28.470	-0.127	0.060	
28.475	-0.092	0.063	
28.480	0.408	0.057	
28.485	0.043	0.079	
28.490	-0.154	0.091	
28.495	0.329	0.083	
28.500	0.280	0.100	
28.505	-0.160	0.124	
28.510	0.116	0.116	
28.515	0.451	0.115	
28.520	-0.078	0.136	
28.525	-0.047	0.133	
28.530	0.456	0.120	
28.535	0.070	0.135	
28.540	-0.160	0.137	
28.545	0.265	0.114	
28.550	0.213	0.108	
28.555	-0.210	0.108	
28.560	0.023	0.079	
28.565	0.325	0.058	
28.570	-0.151	0.061	
28.575	-0.146	0.045	
28.580	0.277	0.022	
28.585	-0.056	0.022	
28.590	-0.233	0.015	
28.595	0.142	-0.009	
28.600	0.113	-0.011	
28.605	-0.244	-0.005	
28.610	-0.021	-0.019	
28.615	0.267	-0.023	
28.620	-0.177	-0.006	
28.625	-0.148	-0.007	
28.630	0.303	-0.014	
28.635	-0.020	0.005	
28.640	-0.212	0.016	
28.645	0.189	0.007	
28.650	0.174	0.017	
28.655	-0.232	0.032	
28.660	0.008	0.021	
28.665	0.351	0.018	
28.670	-0.136	0.039	
28.675	-0.114	0.041	
28.680	0.337	0.033	
28.685	-0.040	0.047	
28.690	-0.227	0.047	
28.695	0.125	0.021	
28.700	0.091	0.009	
28.705	-0.264	0.004	
28.710	-0.056	-0.022	
28.715	0.213	-0.038	
28.720	-0.200	-0.031	
28.725	-0.183	-0.039	
28.730	0.218	-0.052	
28.735	-0.095	-0.041	
28.740	-0.265	-0.039	
28.745	0.111	-0.055	
28.750	0.099	-0.050	
28.755	-0.238	-0.035	
28.760	-0.037	-0.040	
28.765	0.244	-0.038	
28.770	-0.182	-0.018	
28.775	-0.159	-0.018	
28.780	0.344	-0.021	
28.785	0.085	0.009	
28.790	-0.082	0.043	
28.795	0.503	0.071	
28.800	0.447	0.135	
28.805	-0.172	0.198	
28.810	-0.012	0.196	
28.815	0.244	0.162	
28.820	-0.210	0.127	
28.825	-0.204	0.069	
28.830	0.215	0.009	
28.835	-0.082	-0.016	
28.840	-0.264	-0.035	
28.845	0.113	-0.061	
28.850	0.136	-0.058	
28.855	-0.235	-0.039	
28.860	-0.017	-0.038	
28.865	0.315	-0.029	
28.870	-0.143	0.003	
28.875	-0.133	0.013	
28.880	0.309	0.011	
28.885	-0.024	0.029	
28.890	-0.213	0.035	
28.895	0.194	0.020	
28.900	0.206	0.026	
28.905	-0.201	0.043	
28.910	0.043	0.036	
28.915	0.399	0.039	
28.920	-0.098	0.068	
28.925	-0.096	0.074	
28.930	0.389	0.068	
28.935	0.058	0.087	
28.940	-0.165	0.096	
28.945	0.274	0.082	
28.950	0.276	0.091	
28.955	-0.168	0.109	
28.960	0.085	0.099	
28.965	0.439	0.096	
28.970	-0.069	0.118	
28.975	-0.087	0.117	
28.980	0.381	0.101	
28.985	0.023	0.107	
28.990	-0.200	0.101	
28.995	0.183	0.070	
29.000	0.200	0.059	
29.005	-0.213	0.059	
29.010	-0.011	0.038	
29.015	0.303	0.023	
29.020	-0.145	0.033	
29.025	-0.145	0.025	
29.030	0.285	0.010	
29.035	-0.032	0.019	
29.040	-0.232	0.019	
29.045	0.145	-0.000	
29.050	0.157	-0.000	
29.055	-0.239	0.010	
29.060	-0.038	-0.003	
29.065	0.312	-0.009	
29.070	-0.142	0.010	
29.075	-0.125	0.013	
29.080	0.348	0.010	
29.085	-0.003	0.033	
29.090	-0.221	0.044	
29.095	0.181	0.029	
29.100	0.212	0.032	
29.105	-0.197	0.047	
29.110	0.017	0.038	
29.115	0.378	0.036	
29.120	-0.114	0.059	
29.125	-0.137	0.060	
29.130	0.287	0.045	
29.135	-0.043	0.047	
29.140	-0.250	0.037	
29.145	0.072	0.004	
29.150	0.088	-0.014	
29.155	-0.259	-0.021	
29.160	-0.076	-0.044	
29.165	0.201	-0.057	
29.170	-0.200	-0.047	
29.175	-0.195	-0.051	
29.180	0.213	-0.062	
29.185	-0.058	-0.047	
29.190	-0.261	-0.039	
29.195	0.073	-0.051	
29.200	0.064	-0.050	
